SpectraSuite Data File
++++++++++++++++++++++++++++++++++++
Date: Thu Nov 20 11:47:16 CET 2014
User: admin
Spectrometer Serial Number: USB2G49547
Spectrometer Channel: 0
Integration Time (usec): 300000
Spectra Averaged: 5
Boxcar Smoothing: 0
Correct for Electrical Dark: No
Strobe/Lamp Enabled: No
Correct for Detector Non-linearity: No
Correct for Stray Light: No
Number of Pixels in Spectrum: 651
>>>>>Begin Spectral Data<<<<<
350.00	214.763
351.00	214.499
352.00	215.776
353.00	213.690
354.00	215.096
355.00	211.555
356.00	216.015
357.00	215.431
358.00	214.270
359.00	214.526
360.00	214.921
361.00	216.318
362.00	214.599
363.00	217.372
364.00	217.385
365.00	215.060
366.00	212.480
367.00	215.685
368.00	216.256
369.00	215.631
370.00	219.006
371.00	218.203
372.00	218.780
373.00	215.383
374.00	217.689
375.00	215.024
376.00	216.019
377.00	216.331
378.00	215.480
379.00	217.557
380.00	218.731
381.00	218.335
382.00	217.436
383.00	215.146
384.00	216.661
385.00	222.502
386.00	217.301
387.00	217.300
388.00	218.134
389.00	218.087
390.00	214.683
391.00	217.680
392.00	218.150
393.00	214.007
394.00	219.788
395.00	215.760
396.00	217.323
397.00	217.994
398.00	218.923
399.00	220.956
400.00	219.826
401.00	220.417
402.00	219.740
403.00	222.242
404.00	218.942
405.00	216.587
406.00	219.533
407.00	213.838
408.00	228.451
409.00	218.415
410.00	217.962
411.00	219.157
412.00	216.544
413.00	216.792
414.00	218.552
415.00	215.975
416.00	220.853
417.00	222.306
418.00	219.775
419.00	219.334
420.00	218.661
421.00	218.296
422.00	216.955
423.00	217.404
424.00	217.278
425.00	216.381
426.00	219.120
427.00	223.518
428.00	218.626
429.00	216.573
430.00	220.505
431.00	217.963
432.00	222.304
433.00	219.397
434.00	217.000
435.00	222.783
436.00	218.371
437.00	218.994
438.00	218.571
439.00	218.150
440.00	221.796
441.00	215.951
442.00	217.277
443.00	217.774
444.00	247.892
445.00	222.704
446.00	217.074
447.00	218.157
448.00	216.700
449.00	218.340
450.00	217.205
451.00	219.759
452.00	220.225
453.00	214.039
454.00	216.657
455.00	215.745
456.00	220.838
457.00	218.024
458.00	221.885
459.00	214.812
460.00	217.010
461.00	217.770
462.00	217.697
463.00	218.145
464.00	216.414
465.00	216.969
466.00	218.531
467.00	217.526
468.00	219.093
469.00	228.957
470.00	216.653
471.00	214.814
472.00	216.226
473.00	216.967
474.00	218.121
475.00	220.970
476.00	216.843
477.00	217.108
478.00	219.184
479.00	218.604
480.00	216.227
481.00	220.994
482.00	217.474
483.00	220.460
484.00	218.014
485.00	216.210
486.00	215.639
487.00	215.771
488.00	218.775
489.00	219.535
490.00	218.033
491.00	218.220
492.00	220.593
493.00	217.757
494.00	217.098
495.00	216.441
496.00	215.885
497.00	220.499
498.00	217.161
499.00	216.636
500.00	215.508
501.00	220.207
502.00	216.632
503.00	217.229
504.00	216.867
505.00	216.270
506.00	214.970
507.00	215.832
508.00	217.113
509.00	217.745
510.00	217.452
511.00	223.954
512.00	218.384
513.00	216.368
514.00	217.156
515.00	215.907
516.00	217.027
517.00	217.029
518.00	216.718
519.00	218.046
520.00	216.022
521.00	219.793
522.00	216.674
523.00	213.617
524.00	216.686
525.00	215.434
526.00	214.316
527.00	222.020
528.00	216.613
529.00	216.956
530.00	217.696
531.00	217.273
532.00	217.551
533.00	216.510
534.00	216.691
535.00	217.699
536.00	218.827
537.00	214.405
538.00	214.464
539.00	217.703
540.00	215.841
541.00	217.074
542.00	215.888
543.00	216.660
544.00	216.361
545.00	215.336
546.00	218.168
547.00	216.450
548.00	217.899
549.00	219.073
550.00	216.830
551.00	214.430
552.00	217.713
553.00	214.855
554.00	216.725
555.00	217.729
556.00	216.109
557.00	216.502
558.00	216.907
559.00	216.526
560.00	216.761
561.00	219.942
562.00	217.063
563.00	213.021
564.00	215.546
565.00	220.773
566.00	218.117
567.00	217.579
568.00	215.622
569.00	216.273
570.00	219.687
571.00	214.803
572.00	215.821
573.00	217.787
574.00	216.681
575.00	216.121
576.00	214.200
577.00	216.554
578.00	215.552
579.00	216.582
580.00	216.528
581.00	214.046
582.00	213.012
583.00	219.566
584.00	220.372
585.00	216.270
586.00	215.204
587.00	218.386
588.00	217.888
589.00	217.208
590.00	215.877
591.00	217.584
592.00	218.941
593.00	216.957
594.00	215.543
595.00	214.705
596.00	215.339
597.00	217.722
598.00	218.839
599.00	213.216
600.00	223.714
601.00	217.061
602.00	217.590
603.00	216.332
604.00	218.418
605.00	214.055
606.00	215.980
607.00	217.005
608.00	216.097
609.00	216.132
610.00	215.731
611.00	215.572
612.00	215.219
613.00	214.570
614.00	214.842
615.00	215.584
616.00	215.786
617.00	215.853
618.00	217.903
619.00	216.406
620.00	215.247
621.00	214.243
622.00	220.129
623.00	215.800
624.00	223.301
625.00	215.899
626.00	215.950
627.00	216.436
628.00	219.483
629.00	216.280
630.00	216.048
631.00	219.170
632.00	215.019
633.00	227.518
634.00	215.485
635.00	214.514
636.00	215.740
637.00	218.701
638.00	214.988
639.00	216.505
640.00	211.614
641.00	219.236
642.00	214.368
643.00	216.626
644.00	215.311
645.00	213.445
646.00	213.596
647.00	216.218
648.00	215.097
649.00	215.465
650.00	217.699
651.00	214.585
652.00	214.740
653.00	216.287
654.00	214.988
655.00	217.020
656.00	217.974
657.00	217.563
658.00	215.582
659.00	214.454
660.00	214.721
661.00	215.281
662.00	215.487
663.00	215.552
664.00	216.597
665.00	215.728
666.00	216.077
667.00	215.465
668.00	216.243
669.00	215.310
670.00	214.623
671.00	212.166
672.00	218.469
673.00	219.524
674.00	214.864
675.00	213.605
676.00	216.693
677.00	216.438
678.00	214.145
679.00	215.155
680.00	215.179
681.00	215.269
682.00	214.499
683.00	216.282
684.00	217.656
685.00	216.096
686.00	216.830
687.00	212.184
688.00	214.286
689.00	216.629
690.00	214.999
691.00	212.464
692.00	213.199
693.00	213.713
694.00	216.254
695.00	214.435
696.00	213.106
697.00	215.680
698.00	219.231
699.00	215.056
700.00	216.651
701.00	217.236
702.00	220.505
703.00	219.047
704.00	212.924
705.00	214.026
706.00	220.065
707.00	215.493
708.00	211.217
709.00	222.582
710.00	214.326
711.00	221.078
712.00	216.161
713.00	214.326
714.00	218.273
715.00	216.200
716.00	216.736
717.00	214.240
718.00	212.659
719.00	218.725
720.00	218.288
721.00	238.305
722.00	216.579
723.00	213.832
724.00	218.584
725.00	218.059
726.00	220.731
727.00	220.000
728.00	216.782
729.00	217.568
730.00	214.815
731.00	212.899
732.00	216.373
733.00	215.758
734.00	216.667
735.00	214.146
736.00	216.297
737.00	216.471
738.00	215.515
739.00	215.350
740.00	215.286
741.00	218.401
742.00	215.510
743.00	217.133
744.00	216.957
745.00	218.535
746.00	216.296
747.00	221.075
748.00	220.585
749.00	215.727
750.00	213.461
751.00	216.617
752.00	216.587
753.00	213.479
754.00	216.786
755.00	214.364
756.00	214.228
757.00	215.454
758.00	213.723
759.00	215.025
760.00	220.303
761.00	218.047
762.00	223.652
763.00	216.016
764.00	214.167
765.00	218.576
766.00	215.431
767.00	215.338
768.00	217.494
769.00	215.862
770.00	213.148
771.00	213.162
772.00	224.139
773.00	218.188
774.00	215.838
775.00	213.560
776.00	215.899
777.00	213.298
778.00	216.767
779.00	215.671
780.00	213.942
781.00	215.687
782.00	217.915
783.00	215.868
784.00	214.753
785.00	214.961
786.00	214.499
787.00	215.607
788.00	214.903
789.00	218.714
790.00	215.939
791.00	215.452
792.00	216.149
793.00	214.678
794.00	214.022
795.00	217.172
796.00	215.215
797.00	215.456
798.00	213.607
799.00	216.412
800.00	215.900
801.00	216.075
802.00	215.996
803.00	214.781
804.00	222.295
805.00	214.122
806.00	215.005
807.00	215.984
808.00	215.510
809.00	215.926
810.00	214.141
811.00	216.458
812.00	217.298
813.00	212.868
814.00	221.391
815.00	216.092
816.00	216.133
817.00	214.907
818.00	220.949
819.00	213.687
820.00	213.828
821.00	214.437
822.00	216.949
823.00	223.165
824.00	216.716
825.00	218.495
826.00	219.448
827.00	215.984
828.00	215.977
829.00	215.603
830.00	215.847
831.00	214.009
832.00	214.526
833.00	213.894
834.00	216.212
835.00	214.770
836.00	218.118
837.00	215.009
838.00	214.983
839.00	219.241
840.00	215.063
841.00	221.273
842.00	212.313
843.00	214.958
844.00	212.197
845.00	215.689
846.00	214.956
847.00	217.392
848.00	215.070
849.00	215.396
850.00	217.454
851.00	215.661
852.00	214.156
853.00	214.131
854.00	214.613
855.00	215.351
856.00	214.505
857.00	217.402
858.00	215.230
859.00	215.492
860.00	215.068
861.00	215.658
862.00	216.599
863.00	215.614
864.00	215.220
865.00	213.849
866.00	215.179
867.00	216.756
868.00	215.072
869.00	215.346
870.00	217.285
871.00	216.698
872.00	216.785
873.00	223.139
874.00	213.988
875.00	216.226
876.00	213.364
877.00	217.241
878.00	214.900
879.00	215.991
880.00	214.601
881.00	213.543
882.00	213.075
883.00	212.879
884.00	217.148
885.00	220.570
886.00	216.043
887.00	215.659
888.00	213.419
889.00	215.663
890.00	214.920
891.00	214.050
892.00	214.725
893.00	217.576
894.00	212.483
895.00	215.951
896.00	215.735
897.00	214.251
898.00	216.895
899.00	214.658
900.00	215.579
901.00	220.078
902.00	216.437
903.00	214.598
904.00	215.584
905.00	216.684
906.00	216.439
907.00	213.381
908.00	224.679
909.00	216.509
910.00	218.802
911.00	214.608
912.00	215.990
913.00	216.092
914.00	220.678
915.00	216.759
916.00	214.530
917.00	215.984
918.00	214.478
919.00	215.075
920.00	215.160
921.00	215.623
922.00	221.749
923.00	216.330
924.00	214.762
925.00	217.636
926.00	215.433
927.00	214.392
928.00	215.069
929.00	213.966
930.00	215.441
931.00	217.541
932.00	216.448
933.00	216.831
934.00	214.884
935.00	216.268
936.00	214.550
937.00	215.626
938.00	214.840
939.00	211.937
940.00	214.167
941.00	213.962
942.00	213.482
943.00	216.401
944.00	214.218
945.00	217.877
946.00	215.100
947.00	216.719
948.00	214.941
949.00	217.751
950.00	211.426
951.00	216.603
952.00	217.686
953.00	215.011
954.00	218.292
955.00	215.318
956.00	217.976
957.00	216.994
958.00	215.981
959.00	214.342
960.00	217.749
961.00	216.043
962.00	215.356
963.00	227.746
964.00	215.463
965.00	219.157
966.00	216.316
967.00	212.702
968.00	216.469
969.00	214.305
970.00	213.179
971.00	218.535
972.00	214.317
973.00	216.192
974.00	215.834
975.00	213.740
976.00	215.023
977.00	215.287
978.00	216.155
979.00	215.663
980.00	221.073
981.00	211.489
982.00	213.675
983.00	216.135
984.00	215.591
985.00	216.582
986.00	217.195
987.00	216.810
988.00	215.183
989.00	214.639
990.00	214.675
991.00	213.577
992.00	217.306
993.00	215.825
994.00	214.848
995.00	216.813
996.00	214.696
997.00	214.552
998.00	215.977
999.00	212.439
1000.00	216.272
>>>>>End Spectral Data<<<<<
