SpectraSuite Data File
++++++++++++++++++++++++++++++++++++
Date: Thu Nov 20 11:47:31 CET 2014
User: admin
Spectrometer Serial Number: USB2G49547
Spectrometer Channel: 0
Integration Time (usec): 300000
Spectra Averaged: 5
Boxcar Smoothing: 0
Correct for Electrical Dark: No
Strobe/Lamp Enabled: No
Correct for Detector Non-linearity: No
Correct for Stray Light: No
Number of Pixels in Spectrum: 651
>>>>>Begin Spectral Data<<<<<
350.00	214.355
351.00	216.318
352.00	216.890
353.00	216.904
354.00	214.013
355.00	216.383
356.00	215.693
357.00	216.250
358.00	215.667
359.00	217.219
360.00	217.110
361.00	218.394
362.00	215.931
363.00	217.077
364.00	218.505
365.00	218.455
366.00	217.433
367.00	216.804
368.00	220.532
369.00	216.546
370.00	221.859
371.00	221.580
372.00	222.433
373.00	219.863
374.00	219.029
375.00	219.145
376.00	220.744
377.00	218.360
378.00	215.348
379.00	220.419
380.00	219.935
381.00	220.081
382.00	221.355
383.00	216.582
384.00	214.934
385.00	228.573
386.00	219.558
387.00	220.722
388.00	219.401
389.00	221.784
390.00	217.074
391.00	219.498
392.00	219.398
393.00	219.600
394.00	222.734
395.00	220.825
396.00	220.363
397.00	223.579
398.00	222.531
399.00	224.313
400.00	223.551
401.00	222.731
402.00	224.297
403.00	227.830
404.00	224.190
405.00	222.205
406.00	224.757
407.00	224.243
408.00	234.865
409.00	224.958
410.00	226.423
411.00	225.932
412.00	226.406
413.00	223.995
414.00	227.340
415.00	228.655
416.00	228.078
417.00	232.969
418.00	228.842
419.00	230.175
420.00	228.513
421.00	230.835
422.00	230.287
423.00	229.182
424.00	232.944
425.00	233.687
426.00	234.867
427.00	240.187
428.00	238.080
429.00	236.478
430.00	236.846
431.00	236.753
432.00	242.112
433.00	242.788
434.00	242.812
435.00	244.657
436.00	244.052
437.00	250.576
438.00	246.260
439.00	250.923
440.00	252.851
441.00	252.571
442.00	253.340
443.00	254.134
444.00	289.461
445.00	263.481
446.00	260.314
447.00	257.584
448.00	261.471
449.00	261.780
450.00	263.938
451.00	270.928
452.00	276.371
453.00	273.973
454.00	278.114
455.00	276.661
456.00	288.285
457.00	285.529
458.00	289.396
459.00	286.453
460.00	293.395
461.00	295.251
462.00	300.441
463.00	307.163
464.00	307.401
465.00	313.913
466.00	317.325
467.00	327.028
468.00	329.648
469.00	343.362
470.00	341.542
471.00	353.782
472.00	359.620
473.00	368.138
474.00	374.955
475.00	390.916
476.00	397.182
477.00	413.533
478.00	431.325
479.00	439.077
480.00	459.973
481.00	477.542
482.00	489.621
483.00	512.657
484.00	537.107
485.00	550.033
486.00	563.602
487.00	578.838
488.00	609.408
489.00	632.318
490.00	654.207
491.00	688.916
492.00	705.626
493.00	733.616
494.00	759.403
495.00	801.583
496.00	833.733
497.00	848.400
498.00	841.490
499.00	900.534
500.00	907.014
501.00	933.014
502.00	975.728
503.00	1039.277
504.00	1102.683
505.00	1096.505
506.00	1129.870
507.00	1151.418
508.00	1192.171
509.00	1205.978
510.00	1244.078
511.00	1285.618
512.00	1290.256
513.00	1331.522
514.00	1347.613
515.00	1397.619
516.00	1412.846
517.00	1430.342
518.00	1488.621
519.00	1521.353
520.00	1546.244
521.00	1586.342
522.00	1651.183
523.00	1649.789
524.00	1671.520
525.00	1708.546
526.00	1741.550
527.00	1820.556
528.00	1836.111
529.00	1849.520
530.00	1875.219
531.00	1919.570
532.00	1931.900
533.00	2001.435
534.00	1997.975
535.00	2017.000
536.00	2055.544
537.00	2094.496
538.00	2123.385
539.00	2156.368
540.00	2198.292
541.00	2246.216
542.00	2250.035
543.00	2297.077
544.00	2307.675
545.00	2351.098
546.00	2340.854
547.00	2389.357
548.00	2414.134
549.00	2463.502
550.00	2461.039
551.00	2446.310
552.00	2493.043
553.00	2530.091
554.00	2564.213
555.00	2619.667
556.00	2600.317
557.00	2654.594
558.00	2618.741
559.00	2641.844
560.00	2679.284
561.00	2727.633
562.00	2732.189
563.00	2733.534
564.00	2789.554
565.00	2784.889
566.00	2794.386
567.00	2804.929
568.00	2801.298
569.00	2807.695
570.00	2856.578
571.00	2895.758
572.00	2909.272
573.00	2893.299
574.00	2953.165
575.00	2978.823
576.00	2969.322
577.00	2990.211
578.00	3052.437
579.00	3017.392
580.00	3096.528
581.00	3042.851
582.00	3135.725
583.00	3146.808
584.00	3150.867
585.00	3199.064
586.00	3170.287
587.00	3191.183
588.00	3224.136
589.00	3209.471
590.00	3274.473
591.00	3272.258
592.00	3271.837
593.00	3322.219
594.00	3341.604
595.00	3363.528
596.00	3308.151
597.00	3315.710
598.00	3376.520
599.00	3397.169
600.00	3474.951
601.00	3477.457
602.00	3524.394
603.00	3411.970
604.00	3535.073
605.00	3476.716
606.00	3471.646
607.00	3546.200
608.00	3593.182
609.00	3538.184
610.00	3538.992
611.00	3554.343
612.00	3548.741
613.00	3549.479
614.00	3632.594
615.00	3616.683
616.00	3643.593
617.00	3605.469
618.00	3596.308
619.00	3678.401
620.00	3660.221
621.00	3636.816
622.00	3644.564
623.00	3616.400
624.00	3666.771
625.00	3680.835
626.00	3686.986
627.00	3779.616
628.00	3778.835
629.00	3813.366
630.00	3727.292
631.00	3742.609
632.00	3763.734
633.00	3748.657
634.00	3711.777
635.00	3722.898
636.00	3730.919
637.00	3770.396
638.00	3722.103
639.00	3772.042
640.00	3744.289
641.00	3716.201
642.00	3709.256
643.00	3699.172
644.00	3739.148
645.00	3781.217
646.00	3724.109
647.00	3781.467
648.00	3749.321
649.00	3773.683
650.00	3787.074
651.00	3775.303
652.00	3775.267
653.00	3731.266
654.00	3818.836
655.00	3791.565
656.00	3739.858
657.00	3759.835
658.00	3804.201
659.00	3822.441
660.00	3676.152
661.00	3706.774
662.00	3733.269
663.00	3722.054
664.00	3747.282
665.00	3748.538
666.00	3691.423
667.00	3735.643
668.00	3697.551
669.00	3708.214
670.00	3644.527
671.00	3575.500
672.00	3666.001
673.00	3647.860
674.00	3699.718
675.00	3635.315
676.00	3666.923
677.00	3536.341
678.00	3496.430
679.00	3527.658
680.00	3482.392
681.00	3521.555
682.00	3542.552
683.00	3529.820
684.00	3467.125
685.00	3484.013
686.00	3393.057
687.00	3463.923
688.00	3442.658
689.00	3363.331
690.00	3348.871
691.00	3325.489
692.00	3311.207
693.00	3254.568
694.00	3275.281
695.00	3246.325
696.00	3183.717
697.00	3182.557
698.00	3139.502
699.00	3230.180
700.00	3159.492
701.00	3143.159
702.00	3120.112
703.00	3126.620
704.00	3053.995
705.00	3036.840
706.00	2980.089
707.00	2987.637
708.00	2983.018
709.00	2989.745
710.00	2944.660
711.00	2979.246
712.00	2979.363
713.00	2914.186
714.00	2901.558
715.00	2805.594
716.00	2793.392
717.00	2813.329
718.00	2801.153
719.00	2754.318
720.00	2735.028
721.00	2783.456
722.00	2719.901
723.00	2655.205
724.00	2655.003
725.00	2672.493
726.00	2669.043
727.00	2687.141
728.00	2640.890
729.00	2580.781
730.00	2528.833
731.00	2489.739
732.00	2519.110
733.00	2525.620
734.00	2523.268
735.00	2476.945
736.00	2448.934
737.00	2388.943
738.00	2373.966
739.00	2388.407
740.00	2325.850
741.00	2325.464
742.00	2232.488
743.00	2259.169
744.00	2243.209
745.00	2216.942
746.00	2184.560
747.00	2187.591
748.00	2170.628
749.00	2112.343
750.00	2111.656
751.00	2108.011
752.00	2092.995
753.00	2087.433
754.00	2045.771
755.00	2010.627
756.00	1966.009
757.00	1881.112
758.00	1941.164
759.00	1952.826
760.00	1914.537
761.00	1887.626
762.00	1887.904
763.00	1828.280
764.00	1812.934
765.00	1784.643
766.00	1767.520
767.00	1739.243
768.00	1717.626
769.00	1663.870
770.00	1695.426
771.00	1693.851
772.00	1659.964
773.00	1626.821
774.00	1594.860
775.00	1600.819
776.00	1603.006
777.00	1581.328
778.00	1522.695
779.00	1520.993
780.00	1494.707
781.00	1483.033
782.00	1456.303
783.00	1448.202
784.00	1471.414
785.00	1482.413
786.00	1433.715
787.00	1437.597
788.00	1412.336
789.00	1413.669
790.00	1452.289
791.00	1436.269
792.00	1400.708
793.00	1393.378
794.00	1420.166
795.00	1393.321
796.00	1399.941
797.00	1391.395
798.00	1357.104
799.00	1341.677
800.00	1357.005
801.00	1293.441
802.00	1278.662
803.00	1269.517
804.00	1286.195
805.00	1238.097
806.00	1239.348
807.00	1181.026
808.00	1167.588
809.00	1149.008
810.00	1130.524
811.00	1129.746
812.00	1118.969
813.00	1108.628
814.00	1096.269
815.00	1069.492
816.00	1045.922
817.00	1021.136
818.00	1038.845
819.00	994.101
820.00	981.801
821.00	1003.815
822.00	970.041
823.00	970.412
824.00	946.175
825.00	933.185
826.00	919.924
827.00	921.635
828.00	903.067
829.00	890.656
830.00	875.510
831.00	855.403
832.00	820.603
833.00	829.035
834.00	815.850
835.00	789.253
836.00	812.598
837.00	770.263
838.00	776.645
839.00	770.744
840.00	743.118
841.00	736.178
842.00	742.693
843.00	721.358
844.00	702.320
845.00	701.819
846.00	686.741
847.00	689.926
848.00	689.645
849.00	675.313
850.00	662.620
851.00	646.544
852.00	654.465
853.00	638.813
854.00	634.911
855.00	626.136
856.00	623.829
857.00	631.559
858.00	615.042
859.00	608.996
860.00	595.295
861.00	600.190
862.00	585.399
863.00	583.877
864.00	575.156
865.00	560.739
866.00	567.422
867.00	552.894
868.00	539.985
869.00	547.421
870.00	536.252
871.00	521.245
872.00	529.542
873.00	525.219
874.00	508.671
875.00	504.550
876.00	500.291
877.00	483.262
878.00	492.452
879.00	496.155
880.00	480.971
881.00	471.109
882.00	468.106
883.00	465.256
884.00	458.601
885.00	469.362
886.00	457.634
887.00	459.564
888.00	452.027
889.00	454.727
890.00	457.333
891.00	449.178
892.00	443.673
893.00	442.621
894.00	438.289
895.00	436.518
896.00	436.555
897.00	442.543
898.00	442.698
899.00	431.670
900.00	431.870
901.00	430.944
902.00	417.216
903.00	412.801
904.00	412.640
905.00	413.750
906.00	405.301
907.00	405.628
908.00	405.595
909.00	393.633
910.00	395.089
911.00	387.218
912.00	383.849
913.00	384.340
914.00	383.306
915.00	367.744
916.00	373.054
917.00	367.588
918.00	357.199
919.00	354.751
920.00	351.390
921.00	350.175
922.00	356.670
923.00	340.400
924.00	336.618
925.00	336.422
926.00	330.571
927.00	327.578
928.00	324.014
929.00	320.133
930.00	321.460
931.00	315.592
932.00	311.845
933.00	310.045
934.00	307.095
935.00	307.904
936.00	300.635
937.00	302.400
938.00	296.728
939.00	289.278
940.00	289.724
941.00	289.899
942.00	289.025
943.00	284.788
944.00	283.746
945.00	282.239
946.00	276.682
947.00	276.642
948.00	275.680
949.00	276.788
950.00	274.979
951.00	269.606
952.00	269.466
953.00	266.350
954.00	265.741
955.00	264.932
956.00	267.608
957.00	261.231
958.00	263.052
959.00	260.436
960.00	261.276
961.00	253.445
962.00	253.672
963.00	267.664
964.00	257.476
965.00	259.411
966.00	254.668
967.00	249.368
968.00	249.941
969.00	245.398
970.00	244.254
971.00	244.480
972.00	243.371
973.00	243.387
974.00	239.175
975.00	243.105
976.00	237.624
977.00	239.668
978.00	241.085
979.00	238.999
980.00	245.973
981.00	235.916
982.00	236.720
983.00	235.532
984.00	238.172
985.00	232.349
986.00	235.014
987.00	236.642
988.00	230.084
989.00	225.964
990.00	234.875
991.00	229.458
992.00	229.137
993.00	231.646
994.00	229.660
995.00	233.151
996.00	227.282
997.00	227.212
998.00	227.759
999.00	227.244
1000.00	225.618
>>>>>End Spectral Data<<<<<
