SpectraSuite Data File
++++++++++++++++++++++++++++++++++++
Date: Thu Nov 20 11:53:15 CET 2014
User: admin
Dark Spectrum Present: Yes
Reference Spectrum Present: Yes
Number of Sampled Component Spectra: 1
Spectrometers: USB2G49547
Integration Time (usec): 300000 (USB2G49547)
Spectra Averaged: 8 (USB2G49547)
Boxcar Smoothing: 0 (USB2G49547)
Correct for Electrical Dark: No (USB2G49547)
Strobe/Lamp Enabled: No (USB2G49547)
Correct for Detector Non-linearity: No (USB2G49547)
Correct for Stray Light: No (USB2G49547)
Number of Pixels in Processed Spectrum: 651
>>>>>Begin Processed Spectral Data<<<<<
350.00	2666.572
351.00	94.068
352.00	101.460
353.00	141.564
354.00	85.239
355.00	104.111
356.00	77.296
357.00	283.953
358.00	1133.819
359.00	313.024
360.00	76.801
361.00	94.753
362.00	137.426
363.00	-85.929
364.00	31.550
365.00	165.858
366.00	70.461
367.00	3.253
368.00	73.491
369.00	28.165
370.00	50.025
371.00	142.839
372.00	145.308
373.00	128.510
374.00	294.049
375.00	182.671
376.00	64.765
377.00	69.886
378.00	90.244
379.00	62.671
380.00	-3461.109
381.00	153.832
382.00	59.209
383.00	92.819
384.00	82.160
385.00	79.204
386.00	102.993
387.00	125.904
388.00	87.720
389.00	72.005
390.00	107.587
391.00	78.460
392.00	121.069
393.00	74.551
394.00	109.833
395.00	133.479
396.00	121.910
397.00	144.111
398.00	76.079
399.00	98.023
400.00	271.723
401.00	222.008
402.00	196.867
403.00	116.928
404.00	199.941
405.00	123.532
406.00	84.976
407.00	120.932
408.00	133.171
409.00	81.670
410.00	79.702
411.00	83.345
412.00	87.481
413.00	111.131
414.00	104.819
415.00	108.596
416.00	99.859
417.00	103.317
418.00	104.022
419.00	117.350
420.00	112.484
421.00	123.513
422.00	100.533
423.00	100.896
424.00	90.069
425.00	94.892
426.00	96.235
427.00	97.740
428.00	111.433
429.00	109.539
430.00	112.625
431.00	109.794
432.00	103.398
433.00	109.121
434.00	110.728
435.00	100.648
436.00	98.345
437.00	92.682
438.00	96.323
439.00	103.803
440.00	95.549
441.00	99.310
442.00	100.095
443.00	96.819
444.00	91.612
445.00	98.473
446.00	108.175
447.00	96.438
448.00	95.613
449.00	96.295
450.00	100.639
451.00	101.255
452.00	110.734
453.00	93.891
454.00	99.101
455.00	102.140
456.00	98.530
457.00	96.513
458.00	95.465
459.00	97.237
460.00	103.566
461.00	99.525
462.00	97.407
463.00	100.009
464.00	97.874
465.00	94.453
466.00	95.743
467.00	99.121
468.00	95.098
469.00	94.074
470.00	99.261
471.00	99.020
472.00	98.989
473.00	99.012
474.00	99.432
475.00	98.328
476.00	99.680
477.00	98.315
478.00	97.710
479.00	98.379
480.00	98.005
481.00	98.313
482.00	98.548
483.00	97.042
484.00	97.878
485.00	99.034
486.00	98.156
487.00	97.518
488.00	97.682
489.00	97.824
490.00	97.065
491.00	97.600
492.00	98.366
493.00	98.060
494.00	98.290
495.00	97.634
496.00	98.079
497.00	99.061
498.00	98.303
499.00	97.897
500.00	97.284
501.00	98.116
502.00	97.877
503.00	96.731
504.00	98.597
505.00	97.876
506.00	97.853
507.00	97.401
508.00	98.775
509.00	98.670
510.00	98.144
511.00	99.156
512.00	96.913
513.00	97.853
514.00	97.582
515.00	98.153
516.00	97.498
517.00	97.650
518.00	97.812
519.00	96.454
520.00	97.870
521.00	97.777
522.00	97.808
523.00	98.203
524.00	97.332
525.00	98.328
526.00	97.759
527.00	97.202
528.00	97.977
529.00	97.675
530.00	97.824
531.00	98.074
532.00	98.031
533.00	98.090
534.00	97.585
535.00	98.606
536.00	97.831
537.00	97.308
538.00	97.062
539.00	98.248
540.00	97.690
541.00	97.956
542.00	97.796
543.00	97.599
544.00	97.075
545.00	97.047
546.00	97.367
547.00	96.834
548.00	98.062
549.00	97.825
550.00	97.918
551.00	98.485
552.00	98.262
553.00	97.607
554.00	97.570
555.00	97.670
556.00	97.744
557.00	97.392
558.00	97.952
559.00	98.044
560.00	98.532
561.00	97.806
562.00	98.048
563.00	98.084
564.00	97.669
565.00	97.948
566.00	97.771
567.00	97.620
568.00	98.462
569.00	97.966
570.00	98.079
571.00	97.983
572.00	97.965
573.00	98.524
574.00	97.795
575.00	97.563
576.00	98.067
577.00	98.287
578.00	98.320
579.00	98.207
580.00	98.661
581.00	98.259
582.00	97.959
583.00	98.284
584.00	98.168
585.00	98.453
586.00	98.346
587.00	97.940
588.00	98.594
589.00	98.262
590.00	97.930
591.00	98.552
592.00	98.013
593.00	98.534
594.00	98.101
595.00	98.209
596.00	98.375
597.00	98.384
598.00	98.633
599.00	98.206
600.00	98.151
601.00	98.658
602.00	98.693
603.00	98.776
604.00	98.673
605.00	98.521
606.00	98.504
607.00	98.664
608.00	98.222
609.00	98.520
610.00	98.341
611.00	98.671
612.00	98.745
613.00	98.558
614.00	98.560
615.00	98.387
616.00	98.406
617.00	98.701
618.00	98.877
619.00	98.263
620.00	98.362
621.00	98.302
622.00	98.423
623.00	98.341
624.00	98.142
625.00	98.429
626.00	98.396
627.00	98.465
628.00	98.438
629.00	98.445
630.00	98.863
631.00	98.218
632.00	98.184
633.00	98.103
634.00	98.031
635.00	98.477
636.00	98.324
637.00	98.605
638.00	98.455
639.00	98.134
640.00	98.930
641.00	98.834
642.00	98.661
643.00	98.079
644.00	98.179
645.00	98.238
646.00	98.375
647.00	98.296
648.00	98.460
649.00	98.582
650.00	97.853
651.00	97.864
652.00	98.186
653.00	98.131
654.00	97.612
655.00	98.119
656.00	98.396
657.00	98.389
658.00	97.911
659.00	97.967
660.00	98.074
661.00	97.982
662.00	98.319
663.00	98.654
664.00	97.850
665.00	97.870
666.00	98.035
667.00	98.163
668.00	97.906
669.00	97.787
670.00	97.526
671.00	98.133
672.00	98.085
673.00	97.674
674.00	97.795
675.00	97.936
676.00	97.817
677.00	98.247
678.00	97.163
679.00	97.404
680.00	97.856
681.00	97.188
682.00	97.341
683.00	97.301
684.00	97.663
685.00	97.215
686.00	97.531
687.00	97.446
688.00	98.045
689.00	97.505
690.00	97.544
691.00	97.000
692.00	97.147
693.00	98.040
694.00	97.295
695.00	97.677
696.00	97.174
697.00	97.114
698.00	97.473
699.00	97.344
700.00	97.410
701.00	96.784
702.00	97.306
703.00	96.962
704.00	96.530
705.00	97.190
706.00	96.766
707.00	97.055
708.00	97.034
709.00	96.623
710.00	96.933
711.00	96.776
712.00	96.885
713.00	96.383
714.00	96.679
715.00	96.783
716.00	97.117
717.00	95.944
718.00	95.902
719.00	96.812
720.00	97.016
721.00	96.155
722.00	96.340
723.00	96.347
724.00	96.030
725.00	95.750
726.00	95.888
727.00	95.092
728.00	95.926
729.00	96.229
730.00	95.773
731.00	95.421
732.00	95.235
733.00	94.873
734.00	94.958
735.00	95.080
736.00	94.802
737.00	95.710
738.00	94.675
739.00	94.035
740.00	94.455
741.00	94.071
742.00	95.102
743.00	94.782
744.00	93.766
745.00	93.754
746.00	94.367
747.00	93.457
748.00	93.365
749.00	93.115
750.00	93.424
751.00	93.002
752.00	93.925
753.00	93.722
754.00	92.343
755.00	92.303
756.00	92.739
757.00	93.172
758.00	92.318
759.00	91.833
760.00	92.024
761.00	91.705
762.00	91.570
763.00	91.890
764.00	91.667
765.00	91.884
766.00	91.173
767.00	91.261
768.00	90.391
769.00	90.728
770.00	91.007
771.00	90.476
772.00	90.480
773.00	90.247
774.00	89.946
775.00	89.193
776.00	89.417
777.00	89.117
778.00	89.283
779.00	89.028
780.00	89.017
781.00	88.082
782.00	89.000
783.00	88.318
784.00	87.672
785.00	88.448
786.00	88.204
787.00	88.035
788.00	87.725
789.00	87.348
790.00	86.674
791.00	86.458
792.00	85.871
793.00	86.258
794.00	87.020
795.00	86.387
796.00	85.660
797.00	85.456
798.00	85.924
799.00	84.991
800.00	85.073
801.00	83.840
802.00	83.635
803.00	83.318
804.00	83.512
805.00	84.007
806.00	83.489
807.00	83.295
808.00	82.805
809.00	83.041
810.00	82.617
811.00	82.381
812.00	83.532
813.00	80.865
814.00	81.657
815.00	81.925
816.00	81.566
817.00	81.218
818.00	81.161
819.00	82.787
820.00	81.512
821.00	81.080
822.00	81.462
823.00	80.668
824.00	81.265
825.00	81.201
826.00	79.712
827.00	81.295
828.00	79.733
829.00	80.347
830.00	80.991
831.00	81.080
832.00	79.373
833.00	79.334
834.00	79.669
835.00	80.146
836.00	78.322
837.00	78.270
838.00	78.385
839.00	78.841
840.00	79.359
841.00	79.224
842.00	78.687
843.00	79.020
844.00	80.087
845.00	78.881
846.00	79.036
847.00	79.962
848.00	79.424
849.00	78.992
850.00	79.466
851.00	77.865
852.00	79.343
853.00	78.951
854.00	79.095
855.00	78.102
856.00	79.526
857.00	79.926
858.00	77.645
859.00	79.498
860.00	79.474
861.00	78.556
862.00	78.821
863.00	79.234
864.00	79.567
865.00	78.819
866.00	80.094
867.00	78.588
868.00	78.553
869.00	80.247
870.00	79.854
871.00	78.475
872.00	83.099
873.00	80.691
874.00	80.484
875.00	80.919
876.00	79.449
877.00	79.280
878.00	80.758
879.00	79.153
880.00	81.298
881.00	79.899
882.00	82.356
883.00	80.432
884.00	80.482
885.00	80.295
886.00	81.746
887.00	80.407
888.00	81.590
889.00	81.112
890.00	82.680
891.00	84.388
892.00	81.787
893.00	84.633
894.00	84.122
895.00	83.741
896.00	83.335
897.00	81.668
898.00	82.583
899.00	83.366
900.00	81.906
901.00	85.433
902.00	84.909
903.00	82.292
904.00	84.822
905.00	84.405
906.00	84.907
907.00	84.337
908.00	85.446
909.00	83.125
910.00	86.227
911.00	88.074
912.00	84.439
913.00	86.958
914.00	84.008
915.00	86.247
916.00	87.281
917.00	86.828
918.00	85.846
919.00	84.598
920.00	88.941
921.00	85.682
922.00	88.322
923.00	85.110
924.00	84.707
925.00	86.388
926.00	89.136
927.00	87.407
928.00	86.986
929.00	90.436
930.00	94.214
931.00	89.386
932.00	87.238
933.00	88.184
934.00	93.066
935.00	91.736
936.00	90.405
937.00	88.821
938.00	90.919
939.00	92.299
940.00	92.730
941.00	89.758
942.00	91.250
943.00	94.924
944.00	93.856
945.00	90.702
946.00	89.673
947.00	88.367
948.00	86.783
949.00	90.060
950.00	93.799
951.00	87.312
952.00	89.113
953.00	94.446
954.00	89.242
955.00	90.100
956.00	91.518
957.00	89.715
958.00	88.113
959.00	87.957
960.00	96.563
961.00	97.395
962.00	90.674
963.00	99.257
964.00	90.765
965.00	95.375
966.00	92.795
967.00	91.984
968.00	91.254
969.00	99.344
970.00	87.693
971.00	93.167
972.00	96.546
973.00	87.212
974.00	93.817
975.00	108.780
976.00	84.593
977.00	92.392
978.00	103.166
979.00	96.627
980.00	99.123
981.00	97.248
982.00	106.850
983.00	94.978
984.00	101.151
985.00	89.193
986.00	85.955
987.00	96.072
988.00	108.989
989.00	93.120
990.00	104.136
991.00	111.190
992.00	97.906
993.00	90.759
994.00	98.225
995.00	93.246
996.00	114.559
997.00	85.572
998.00	120.394
999.00	96.827
1000.00	94.592
>>>>>End Processed Spectral Data<<<<<
