SpectraSuite Data File
++++++++++++++++++++++++++++++++++++
Date: Thu Nov 20 11:58:10 CET 2014
User: admin
Spectrometer Serial Number: USB2G49547
Spectrometer Channel: 0
Integration Time (usec): 300000
Spectra Averaged: 8
Boxcar Smoothing: 0
Correct for Electrical Dark: No
Strobe/Lamp Enabled: No
Correct for Detector Non-linearity: No
Correct for Stray Light: No
Number of Pixels in Spectrum: 651
>>>>>Begin Spectral Data<<<<<
350.00	215.901
351.00	218.173
352.00	218.877
353.00	219.596
354.00	217.614
355.00	216.604
356.00	220.578
357.00	219.851
358.00	218.278
359.00	218.368
360.00	217.356
361.00	218.665
362.00	217.212
363.00	220.029
364.00	218.801
365.00	219.467
366.00	220.132
367.00	218.269
368.00	219.378
369.00	219.105
370.00	222.855
371.00	222.318
372.00	222.378
373.00	219.586
374.00	221.400
375.00	220.263
376.00	219.969
377.00	220.252
378.00	218.393
379.00	219.884
380.00	221.658
381.00	222.922
382.00	220.974
383.00	219.380
384.00	217.990
385.00	228.926
386.00	222.836
387.00	222.042
388.00	221.525
389.00	222.863
390.00	221.331
391.00	220.798
392.00	220.658
393.00	221.891
394.00	225.670
395.00	221.320
396.00	225.297
397.00	223.902
398.00	228.848
399.00	226.736
400.00	224.247
401.00	225.067
402.00	225.187
403.00	228.866
404.00	223.807
405.00	224.654
406.00	226.031
407.00	224.037
408.00	237.481
409.00	226.786
410.00	227.721
411.00	225.695
412.00	226.977
413.00	226.876
414.00	229.102
415.00	228.718
416.00	229.168
417.00	234.245
418.00	231.202
419.00	232.357
420.00	229.062
421.00	232.673
422.00	231.908
423.00	230.503
424.00	233.098
425.00	233.405
426.00	234.990
427.00	240.857
428.00	239.125
429.00	237.693
430.00	239.348
431.00	240.294
432.00	242.381
433.00	243.664
434.00	242.757
435.00	248.452
436.00	247.926
437.00	250.286
438.00	248.358
439.00	248.705
440.00	255.302
441.00	252.725
442.00	252.465
443.00	255.611
444.00	293.853
445.00	264.738
446.00	262.320
447.00	263.741
448.00	263.204
449.00	260.888
450.00	269.624
451.00	269.242
452.00	275.742
453.00	275.137
454.00	273.123
455.00	278.565
456.00	287.608
457.00	283.575
458.00	290.261
459.00	287.610
460.00	292.120
461.00	296.081
462.00	301.160
463.00	303.981
464.00	307.836
465.00	311.321
466.00	315.524
467.00	321.814
468.00	330.802
469.00	347.298
470.00	341.768
471.00	346.473
472.00	353.313
473.00	364.031
474.00	369.600
475.00	385.146
476.00	397.409
477.00	407.706
478.00	426.903
479.00	434.242
480.00	452.642
481.00	472.102
482.00	483.452
483.00	501.965
484.00	525.252
485.00	534.295
486.00	552.445
487.00	568.460
488.00	595.524
489.00	620.436
490.00	639.285
491.00	669.027
492.00	694.735
493.00	708.879
494.00	742.238
495.00	776.681
496.00	797.739
497.00	836.962
498.00	819.837
499.00	869.486
500.00	891.837
501.00	914.403
502.00	962.310
503.00	1009.058
504.00	1075.047
505.00	1085.830
506.00	1104.623
507.00	1124.495
508.00	1147.677
509.00	1184.577
510.00	1221.812
511.00	1247.797
512.00	1246.098
513.00	1317.652
514.00	1313.382
515.00	1346.902
516.00	1361.325
517.00	1396.177
518.00	1433.843
519.00	1478.712
520.00	1516.207
521.00	1557.917
522.00	1586.039
523.00	1586.634
524.00	1615.368
525.00	1655.714
526.00	1684.351
527.00	1754.543
528.00	1781.241
529.00	1781.297
530.00	1832.786
531.00	1852.999
532.00	1883.133
533.00	1941.355
534.00	1929.240
535.00	1947.697
536.00	2000.633
537.00	2024.884
538.00	2057.653
539.00	2084.623
540.00	2106.834
541.00	2155.870
542.00	2176.722
543.00	2197.305
544.00	2232.689
545.00	2271.383
546.00	2297.369
547.00	2293.812
548.00	2325.505
549.00	2351.892
550.00	2371.899
551.00	2400.199
552.00	2447.532
553.00	2437.313
554.00	2447.276
555.00	2515.850
556.00	2520.435
557.00	2563.335
558.00	2531.711
559.00	2573.436
560.00	2611.298
561.00	2644.688
562.00	2642.074
563.00	2628.717
564.00	2659.286
565.00	2699.181
566.00	2713.608
567.00	2714.806
568.00	2742.246
569.00	2726.357
570.00	2825.783
571.00	2811.346
572.00	2794.690
573.00	2863.651
574.00	2836.571
575.00	2867.734
576.00	2839.897
577.00	2906.012
578.00	2950.750
579.00	2906.212
580.00	3017.598
581.00	2960.447
582.00	2984.310
583.00	3019.575
584.00	3019.457
585.00	3081.657
586.00	3050.072
587.00	3094.109
588.00	3084.840
589.00	3128.587
590.00	3143.784
591.00	3139.719
592.00	3147.536
593.00	3191.271
594.00	3194.061
595.00	3199.792
596.00	3174.797
597.00	3217.015
598.00	3265.815
599.00	3292.013
600.00	3314.305
601.00	3366.353
602.00	3421.301
603.00	3287.164
604.00	3372.113
605.00	3369.256
606.00	3382.422
607.00	3442.296
608.00	3454.001
609.00	3464.059
610.00	3407.306
611.00	3430.626
612.00	3428.068
613.00	3430.448
614.00	3492.813
615.00	3501.784
616.00	3472.086
617.00	3498.948
618.00	3440.328
619.00	3493.372
620.00	3526.372
621.00	3464.753
622.00	3508.579
623.00	3497.469
624.00	3492.290
625.00	3569.866
626.00	3533.207
627.00	3615.682
628.00	3569.953
629.00	3627.396
630.00	3558.897
631.00	3570.762
632.00	3582.916
633.00	3581.817
634.00	3557.236
635.00	3561.650
636.00	3566.983
637.00	3565.918
638.00	3557.904
639.00	3598.395
640.00	3625.704
641.00	3645.991
642.00	3593.637
643.00	3665.632
644.00	3650.019
645.00	3662.863
646.00	3605.579
647.00	3602.594
648.00	3664.552
649.00	3630.219
650.00	3633.632
651.00	3681.722
652.00	3651.805
653.00	3648.165
654.00	3665.805
655.00	3712.911
656.00	3673.049
657.00	3672.532
658.00	3687.113
659.00	3692.024
660.00	3635.999
661.00	3615.797
662.00	3602.224
663.00	3583.228
664.00	3638.744
665.00	3596.669
666.00	3528.730
667.00	3629.956
668.00	3581.723
669.00	3575.414
670.00	3569.704
671.00	3550.978
672.00	3523.027
673.00	3512.263
674.00	3566.763
675.00	3554.842
676.00	3507.881
677.00	3446.180
678.00	3407.295
679.00	3448.315
680.00	3414.293
681.00	3413.450
682.00	3394.003
683.00	3321.005
684.00	3365.805
685.00	3392.822
686.00	3271.457
687.00	3286.598
688.00	3311.502
689.00	3225.396
690.00	3221.296
691.00	3230.874
692.00	3205.071
693.00	3182.448
694.00	3197.910
695.00	3164.104
696.00	3138.115
697.00	3124.547
698.00	3117.307
699.00	3080.845
700.00	3050.606
701.00	3046.762
702.00	3026.252
703.00	3030.136
704.00	2980.265
705.00	2951.233
706.00	2922.911
707.00	2921.168
708.00	2860.554
709.00	2905.959
710.00	2848.044
711.00	2868.400
712.00	2839.072
713.00	2835.417
714.00	2803.835
715.00	2775.757
716.00	2761.587
717.00	2741.738
718.00	2686.024
719.00	2687.221
720.00	2700.871
721.00	2696.751
722.00	2705.706
723.00	2681.159
724.00	2588.439
725.00	2567.905
726.00	2543.589
727.00	2511.949
728.00	2535.834
729.00	2501.616
730.00	2511.453
731.00	2470.670
732.00	2464.356
733.00	2438.395
734.00	2443.260
735.00	2390.822
736.00	2431.302
737.00	2322.896
738.00	2340.519
739.00	2427.128
740.00	2318.787
741.00	2281.136
742.00	2273.801
743.00	2197.482
744.00	2199.631
745.00	2185.074
746.00	2148.455
747.00	2134.535
748.00	2098.145
749.00	2068.159
750.00	2045.862
751.00	2050.124
752.00	2051.407
753.00	2038.858
754.00	1967.432
755.00	1981.176
756.00	1950.055
757.00	1892.194
758.00	1964.426
759.00	1895.952
760.00	1858.936
761.00	1862.463
762.00	1829.888
763.00	1819.052
764.00	1748.961
765.00	1747.713
766.00	1729.689
767.00	1682.944
768.00	1675.010
769.00	1655.768
770.00	1645.949
771.00	1604.038
772.00	1603.802
773.00	1586.310
774.00	1570.064
775.00	1531.514
776.00	1527.019
777.00	1485.571
778.00	1482.664
779.00	1475.375
780.00	1440.796
781.00	1474.342
782.00	1488.419
783.00	1436.324
784.00	1439.265
785.00	1414.305
786.00	1386.848
787.00	1409.475
788.00	1410.673
789.00	1428.319
790.00	1409.683
791.00	1421.773
792.00	1398.697
793.00	1388.843
794.00	1394.013
795.00	1389.005
796.00	1395.211
797.00	1382.114
798.00	1333.099
799.00	1343.002
800.00	1306.422
801.00	1265.018
802.00	1282.523
803.00	1270.867
804.00	1276.891
805.00	1203.292
806.00	1184.016
807.00	1181.175
808.00	1162.743
809.00	1131.964
810.00	1094.510
811.00	1110.415
812.00	1090.278
813.00	1110.215
814.00	1078.343
815.00	1053.525
816.00	1030.611
817.00	1032.701
818.00	1021.822
819.00	1000.261
820.00	1006.996
821.00	987.100
822.00	984.592
823.00	967.042
824.00	944.495
825.00	940.893
826.00	927.235
827.00	917.738
828.00	879.223
829.00	878.394
830.00	875.364
831.00	854.375
832.00	824.121
833.00	831.521
834.00	809.638
835.00	813.785
836.00	790.884
837.00	785.190
838.00	788.620
839.00	764.531
840.00	737.170
841.00	731.166
842.00	722.488
843.00	708.623
844.00	703.971
845.00	703.496
846.00	704.111
847.00	700.815
848.00	697.743
849.00	688.639
850.00	674.758
851.00	665.913
852.00	652.643
853.00	643.214
854.00	631.472
855.00	619.846
856.00	634.374
857.00	626.735
858.00	613.712
859.00	600.637
860.00	593.196
861.00	593.178
862.00	592.374
863.00	578.494
864.00	575.164
865.00	556.305
866.00	558.747
867.00	549.631
868.00	531.115
869.00	554.283
870.00	535.811
871.00	526.754
872.00	526.503
873.00	525.962
874.00	515.080
875.00	507.029
876.00	492.328
877.00	485.382
878.00	490.795
879.00	497.530
880.00	481.506
881.00	472.785
882.00	468.211
883.00	461.322
884.00	468.614
885.00	469.724
886.00	464.292
887.00	462.117
888.00	449.518
889.00	449.643
890.00	452.476
891.00	456.498
892.00	448.539
893.00	446.296
894.00	450.539
895.00	447.544
896.00	439.600
897.00	444.568
898.00	441.758
899.00	429.278
900.00	432.695
901.00	424.886
902.00	411.957
903.00	408.555
904.00	415.265
905.00	413.524
906.00	413.421
907.00	409.997
908.00	400.567
909.00	394.509
910.00	401.587
911.00	388.636
912.00	385.161
913.00	383.720
914.00	381.037
915.00	369.852
916.00	371.193
917.00	366.130
918.00	362.466
919.00	357.683
920.00	347.540
921.00	349.743
922.00	354.643
923.00	344.677
924.00	336.211
925.00	330.542
926.00	328.363
927.00	323.710
928.00	322.403
929.00	324.387
930.00	315.124
931.00	313.680
932.00	313.414
933.00	309.961
934.00	307.225
935.00	307.470
936.00	302.170
937.00	302.960
938.00	298.790
939.00	295.406
940.00	294.887
941.00	291.898
942.00	291.169
943.00	284.288
944.00	284.281
945.00	284.999
946.00	282.324
947.00	277.039
948.00	277.170
949.00	278.474
950.00	276.516
951.00	273.001
952.00	276.404
953.00	269.910
954.00	270.101
955.00	268.424
956.00	265.943
957.00	265.548
958.00	264.937
959.00	262.684
960.00	262.783
961.00	257.281
962.00	257.673
963.00	269.974
964.00	253.308
965.00	257.317
966.00	254.274
967.00	250.681
968.00	249.439
969.00	246.497
970.00	244.824
971.00	248.037
972.00	242.637
973.00	245.612
974.00	242.690
975.00	243.119
976.00	240.586
977.00	239.585
978.00	240.591
979.00	239.544
980.00	249.644
981.00	236.911
982.00	238.387
983.00	237.542
984.00	238.269
985.00	237.076
986.00	236.252
987.00	239.239
988.00	231.014
989.00	232.916
990.00	234.348
991.00	232.065
992.00	231.355
993.00	231.763
994.00	230.669
995.00	229.459
996.00	229.418
997.00	229.982
998.00	229.129
999.00	226.201
1000.00	229.814
>>>>>End Spectral Data<<<<<
