SpectraSuite Data File
++++++++++++++++++++++++++++++++++++
Date: Thu Nov 20 12:00:25 CET 2014
User: admin
Spectrometer Serial Number: USB2G49547
Spectrometer Channel: 0
Integration Time (usec): 300000
Spectra Averaged: 8
Boxcar Smoothing: 0
Correct for Electrical Dark: No
Strobe/Lamp Enabled: No
Correct for Detector Non-linearity: No
Correct for Stray Light: No
Number of Pixels in Spectrum: 651
>>>>>Begin Spectral Data<<<<<
350.00	217.992
351.00	220.165
352.00	219.419
353.00	219.188
354.00	216.927
355.00	217.525
356.00	221.483
357.00	219.243
358.00	217.762
359.00	218.542
360.00	218.779
361.00	219.086
362.00	218.511
363.00	218.972
364.00	220.229
365.00	218.749
366.00	219.405
367.00	219.310
368.00	219.193
369.00	220.384
370.00	221.812
371.00	222.487
372.00	223.444
373.00	221.112
374.00	222.311
375.00	220.532
376.00	220.733
377.00	220.267
378.00	219.820
379.00	221.314
380.00	222.578
381.00	220.289
382.00	222.717
383.00	219.596
384.00	221.448
385.00	229.016
386.00	220.370
387.00	221.462
388.00	222.142
389.00	221.417
390.00	221.911
391.00	221.216
392.00	220.896
393.00	221.887
394.00	223.681
395.00	222.006
396.00	223.200
397.00	224.276
398.00	225.572
399.00	227.732
400.00	224.094
401.00	224.624
402.00	226.335
403.00	227.923
404.00	226.511
405.00	224.423
406.00	225.951
407.00	225.296
408.00	235.895
409.00	226.121
410.00	227.299
411.00	226.574
412.00	227.987
413.00	227.501
414.00	228.343
415.00	231.587
416.00	228.685
417.00	234.628
418.00	234.403
419.00	230.987
420.00	230.304
421.00	232.492
422.00	232.726
423.00	231.791
424.00	231.987
425.00	234.827
426.00	235.592
427.00	243.368
428.00	238.340
429.00	239.398
430.00	239.976
431.00	239.672
432.00	244.370
433.00	245.225
434.00	243.518
435.00	250.420
436.00	247.108
437.00	251.494
438.00	248.285
439.00	252.002
440.00	255.416
441.00	252.949
442.00	254.935
443.00	257.728
444.00	292.794
445.00	266.807
446.00	264.439
447.00	265.267
448.00	262.819
449.00	266.214
450.00	267.561
451.00	269.187
452.00	277.019
453.00	274.822
454.00	277.957
455.00	278.761
456.00	288.825
457.00	284.906
458.00	290.615
459.00	289.642
460.00	293.896
461.00	296.380
462.00	298.934
463.00	304.298
464.00	309.107
465.00	313.766
466.00	317.219
467.00	327.822
468.00	329.913
469.00	349.146
470.00	348.673
471.00	351.754
472.00	358.912
473.00	365.151
474.00	372.793
475.00	383.429
476.00	399.665
477.00	410.842
478.00	432.777
479.00	438.638
480.00	455.024
481.00	475.455
482.00	489.807
483.00	505.933
484.00	530.384
485.00	537.317
486.00	560.271
487.00	575.040
488.00	600.903
489.00	627.864
490.00	644.617
491.00	679.279
492.00	705.763
493.00	714.160
494.00	752.176
495.00	787.906
496.00	803.606
497.00	841.793
498.00	836.113
499.00	879.441
500.00	890.510
501.00	929.364
502.00	965.281
503.00	1023.559
504.00	1084.710
505.00	1104.259
506.00	1115.943
507.00	1129.131
508.00	1154.605
509.00	1199.351
510.00	1236.486
511.00	1257.970
512.00	1259.240
513.00	1316.959
514.00	1329.578
515.00	1371.129
516.00	1378.008
517.00	1406.544
518.00	1449.866
519.00	1488.716
520.00	1535.266
521.00	1566.168
522.00	1599.118
523.00	1599.884
524.00	1632.682
525.00	1671.994
526.00	1705.499
527.00	1774.397
528.00	1796.322
529.00	1812.205
530.00	1835.877
531.00	1870.256
532.00	1901.359
533.00	1957.236
534.00	1944.778
535.00	1967.774
536.00	2014.380
537.00	2054.494
538.00	2066.271
539.00	2100.058
540.00	2134.434
541.00	2188.548
542.00	2187.377
543.00	2220.609
544.00	2247.445
545.00	2286.409
546.00	2318.428
547.00	2324.402
548.00	2337.731
549.00	2382.375
550.00	2395.519
551.00	2411.098
552.00	2480.879
553.00	2453.113
554.00	2473.397
555.00	2544.040
556.00	2542.736
557.00	2584.871
558.00	2568.336
559.00	2598.376
560.00	2619.473
561.00	2671.405
562.00	2643.226
563.00	2643.908
564.00	2676.473
565.00	2723.725
566.00	2727.227
567.00	2740.970
568.00	2764.286
569.00	2756.902
570.00	2855.063
571.00	2830.981
572.00	2820.108
573.00	2886.579
574.00	2876.381
575.00	2889.324
576.00	2869.344
577.00	2936.485
578.00	2979.120
579.00	2933.749
580.00	3016.411
581.00	2982.237
582.00	3006.943
583.00	3038.278
584.00	3051.335
585.00	3087.430
586.00	3054.290
587.00	3115.194
588.00	3119.025
589.00	3148.854
590.00	3165.853
591.00	3154.298
592.00	3181.081
593.00	3219.075
594.00	3214.510
595.00	3221.059
596.00	3203.117
597.00	3227.083
598.00	3285.570
599.00	3305.471
600.00	3340.436
601.00	3397.099
602.00	3467.799
603.00	3330.642
604.00	3417.703
605.00	3404.879
606.00	3420.397
607.00	3465.213
608.00	3506.222
609.00	3492.418
610.00	3423.294
611.00	3447.549
612.00	3432.247
613.00	3460.417
614.00	3530.332
615.00	3533.290
616.00	3508.875
617.00	3524.625
618.00	3478.988
619.00	3527.028
620.00	3566.725
621.00	3489.359
622.00	3536.097
623.00	3517.972
624.00	3508.426
625.00	3606.889
626.00	3571.395
627.00	3630.598
628.00	3605.707
629.00	3660.620
630.00	3612.296
631.00	3591.066
632.00	3609.307
633.00	3622.331
634.00	3603.600
635.00	3602.671
636.00	3597.766
637.00	3605.198
638.00	3583.642
639.00	3630.874
640.00	3665.713
641.00	3692.487
642.00	3627.092
643.00	3713.118
644.00	3686.651
645.00	3705.349
646.00	3649.994
647.00	3648.376
648.00	3696.609
649.00	3675.797
650.00	3655.312
651.00	3703.967
652.00	3667.154
653.00	3676.177
654.00	3685.148
655.00	3732.825
656.00	3687.280
657.00	3702.096
658.00	3712.560
659.00	3718.721
660.00	3655.000
661.00	3661.313
662.00	3626.906
663.00	3611.934
664.00	3667.005
665.00	3633.566
666.00	3541.169
667.00	3667.493
668.00	3599.231
669.00	3595.294
670.00	3606.705
671.00	3581.507
672.00	3563.427
673.00	3538.833
674.00	3588.302
675.00	3588.899
676.00	3548.327
677.00	3492.049
678.00	3439.073
679.00	3483.672
680.00	3446.214
681.00	3437.877
682.00	3430.875
683.00	3343.150
684.00	3402.234
685.00	3416.691
686.00	3274.926
687.00	3314.207
688.00	3342.343
689.00	3232.943
690.00	3250.677
691.00	3276.608
692.00	3247.141
693.00	3222.102
694.00	3229.198
695.00	3200.654
696.00	3160.025
697.00	3157.745
698.00	3143.330
699.00	3112.590
700.00	3080.853
701.00	3077.589
702.00	3050.929
703.00	3064.989
704.00	3023.759
705.00	2976.453
706.00	2936.303
707.00	2951.596
708.00	2888.576
709.00	2913.670
710.00	2867.237
711.00	2885.040
712.00	2866.434
713.00	2865.326
714.00	2826.779
715.00	2792.745
716.00	2781.654
717.00	2771.424
718.00	2725.533
719.00	2729.878
720.00	2724.120
721.00	2723.122
722.00	2746.162
723.00	2703.762
724.00	2635.786
725.00	2609.339
726.00	2586.243
727.00	2549.248
728.00	2550.405
729.00	2527.775
730.00	2540.982
731.00	2495.348
732.00	2494.123
733.00	2484.468
734.00	2476.783
735.00	2416.804
736.00	2445.741
737.00	2346.051
738.00	2365.082
739.00	2446.920
740.00	2340.379
741.00	2309.097
742.00	2272.651
743.00	2223.658
744.00	2226.333
745.00	2211.621
746.00	2161.779
747.00	2155.856
748.00	2112.884
749.00	2079.717
750.00	2054.569
751.00	2073.601
752.00	2064.566
753.00	2065.719
754.00	1978.953
755.00	1991.477
756.00	1971.258
757.00	1910.999
758.00	1970.184
759.00	1918.616
760.00	1870.521
761.00	1869.431
762.00	1845.411
763.00	1817.376
764.00	1761.973
765.00	1773.443
766.00	1747.270
767.00	1698.662
768.00	1689.922
769.00	1654.067
770.00	1663.004
771.00	1625.369
772.00	1621.989
773.00	1598.106
774.00	1578.417
775.00	1536.929
776.00	1538.974
777.00	1507.012
778.00	1491.398
779.00	1475.696
780.00	1453.263
781.00	1476.084
782.00	1494.289
783.00	1445.978
784.00	1439.912
785.00	1413.888
786.00	1394.786
787.00	1425.219
788.00	1401.419
789.00	1417.215
790.00	1411.226
791.00	1425.395
792.00	1406.115
793.00	1398.048
794.00	1401.669
795.00	1396.278
796.00	1391.236
797.00	1376.333
798.00	1335.131
799.00	1355.396
800.00	1303.851
801.00	1268.564
802.00	1294.570
803.00	1272.656
804.00	1272.089
805.00	1206.999
806.00	1190.213
807.00	1180.329
808.00	1155.934
809.00	1126.812
810.00	1090.313
811.00	1105.409
812.00	1083.685
813.00	1101.605
814.00	1077.688
815.00	1049.735
816.00	1043.138
817.00	1024.790
818.00	1030.356
819.00	996.207
820.00	1004.576
821.00	981.542
822.00	977.442
823.00	960.385
824.00	936.906
825.00	930.721
826.00	926.328
827.00	909.068
828.00	880.578
829.00	876.007
830.00	880.174
831.00	854.540
832.00	825.508
833.00	825.499
834.00	802.900
835.00	812.728
836.00	790.792
837.00	781.248
838.00	781.094
839.00	758.145
840.00	740.999
841.00	726.327
842.00	723.193
843.00	700.517
844.00	700.514
845.00	693.917
846.00	700.863
847.00	702.079
848.00	690.208
849.00	677.061
850.00	677.640
851.00	659.808
852.00	651.212
853.00	644.873
854.00	632.058
855.00	618.434
856.00	633.584
857.00	623.835
858.00	609.122
859.00	602.431
860.00	588.481
861.00	589.066
862.00	587.124
863.00	579.005
864.00	571.602
865.00	555.158
866.00	554.030
867.00	549.768
868.00	529.651
869.00	551.006
870.00	532.737
871.00	527.387
872.00	524.584
873.00	518.923
874.00	514.834
875.00	501.958
876.00	491.486
877.00	482.517
878.00	485.963
879.00	495.534
880.00	481.687
881.00	472.363
882.00	475.047
883.00	462.861
884.00	466.188
885.00	467.265
886.00	463.496
887.00	464.388
888.00	449.720
889.00	453.216
890.00	451.459
891.00	455.192
892.00	449.071
893.00	447.192
894.00	447.363
895.00	443.286
896.00	437.762
897.00	441.675
898.00	438.353
899.00	430.778
900.00	429.226
901.00	424.139
902.00	411.822
903.00	407.297
904.00	413.243
905.00	412.288
906.00	410.287
907.00	409.611
908.00	403.662
909.00	395.529
910.00	399.613
911.00	384.119
912.00	385.034
913.00	387.082
914.00	379.316
915.00	371.332
916.00	371.925
917.00	366.563
918.00	363.157
919.00	362.126
920.00	347.545
921.00	347.715
922.00	351.117
923.00	341.847
924.00	336.048
925.00	326.989
926.00	327.468
927.00	324.497
928.00	320.621
929.00	317.464
930.00	316.088
931.00	315.578
932.00	314.576
933.00	306.437
934.00	308.812
935.00	306.479
936.00	303.103
937.00	303.096
938.00	296.297
939.00	295.867
940.00	296.912
941.00	291.519
942.00	290.724
943.00	286.681
944.00	285.235
945.00	283.542
946.00	280.574
947.00	277.994
948.00	277.912
949.00	280.528
950.00	277.293
951.00	276.255
952.00	272.807
953.00	268.664
954.00	269.630
955.00	267.928
956.00	266.251
957.00	262.335
958.00	262.777
959.00	264.477
960.00	264.198
961.00	257.180
962.00	257.120
963.00	270.316
964.00	254.784
965.00	258.082
966.00	251.975
967.00	250.967
968.00	247.456
969.00	246.651
970.00	248.166
971.00	247.819
972.00	246.203
973.00	248.670
974.00	244.314
975.00	243.807
976.00	241.730
977.00	242.473
978.00	243.094
979.00	241.107
980.00	247.749
981.00	238.264
982.00	239.941
983.00	236.189
984.00	236.597
985.00	236.159
986.00	236.498
987.00	238.919
988.00	233.811
989.00	233.975
990.00	233.989
991.00	231.071
992.00	230.959
993.00	233.068
994.00	230.955
995.00	232.346
996.00	229.700
997.00	230.013
998.00	230.671
999.00	228.552
1000.00	229.236
>>>>>End Spectral Data<<<<<
