SpectraSuite Data File
++++++++++++++++++++++++++++++++++++
Date: Thu Nov 20 11:57:45 CET 2014
User: admin
Dark Spectrum Present: Yes
Reference Spectrum Present: Yes
Number of Sampled Component Spectra: 1
Spectrometers: USB2G49547
Integration Time (usec): 300000 (USB2G49547)
Spectra Averaged: 8 (USB2G49547)
Boxcar Smoothing: 0 (USB2G49547)
Correct for Electrical Dark: No (USB2G49547)
Strobe/Lamp Enabled: No (USB2G49547)
Correct for Detector Non-linearity: No (USB2G49547)
Correct for Stray Light: No (USB2G49547)
Number of Pixels in Processed Spectrum: 651
>>>>>Begin Processed Spectral Data<<<<<
350.00	62.907
351.00	38.079
352.00	69.703
353.00	115.908
354.00	106.269
355.00	106.737
356.00	79.568
357.00	59.708
358.00	117.765
359.00	100.827
360.00	156.074
361.00	80.151
362.00	265.774
363.00	112.381
364.00	313.706
365.00	106.249
366.00	85.486
367.00	58.865
368.00	77.736
369.00	162.977
370.00	1523.494
371.00	167.915
372.00	101.961
373.00	183.612
374.00	82.249
375.00	85.414
376.00	85.507
377.00	54.774
378.00	61.345
379.00	109.634
380.00	242.485
381.00	203.672
382.00	76.775
383.00	55.748
384.00	104.957
385.00	114.314
386.00	125.172
387.00	103.276
388.00	105.431
389.00	69.156
390.00	32.365
391.00	70.395
392.00	95.588
393.00	92.541
394.00	94.058
395.00	81.019
396.00	110.831
397.00	87.870
398.00	93.625
399.00	89.568
400.00	87.549
401.00	77.243
402.00	56.843
403.00	142.898
404.00	138.559
405.00	89.949
406.00	135.341
407.00	93.772
408.00	75.835
409.00	94.214
410.00	98.387
411.00	95.369
412.00	90.624
413.00	129.080
414.00	94.551
415.00	94.480
416.00	88.561
417.00	105.758
418.00	104.927
419.00	100.346
420.00	112.870
421.00	119.919
422.00	121.708
423.00	108.946
424.00	87.047
425.00	103.502
426.00	93.136
427.00	92.781
428.00	99.286
429.00	92.389
430.00	107.167
431.00	105.519
432.00	90.077
433.00	99.043
434.00	104.979
435.00	108.768
436.00	107.777
437.00	101.968
438.00	97.429
439.00	101.507
440.00	98.528
441.00	95.365
442.00	96.495
443.00	91.796
444.00	89.602
445.00	92.496
446.00	95.169
447.00	96.269
448.00	99.012
449.00	91.227
450.00	97.748
451.00	97.270
452.00	94.298
453.00	90.864
454.00	96.813
455.00	99.443
456.00	94.873
457.00	98.347
458.00	90.330
459.00	92.362
460.00	95.480
461.00	95.867
462.00	97.657
463.00	93.282
464.00	98.412
465.00	98.280
466.00	93.132
467.00	91.203
468.00	97.967
469.00	95.030
470.00	94.698
471.00	95.497
472.00	94.277
473.00	91.682
474.00	95.175
475.00	93.454
476.00	96.644
477.00	92.539
478.00	95.468
479.00	97.168
480.00	93.629
481.00	94.268
482.00	93.589
483.00	94.970
484.00	93.002
485.00	95.077
486.00	95.059
487.00	94.025
488.00	95.649
489.00	95.939
490.00	95.169
491.00	94.608
492.00	94.852
493.00	94.675
494.00	95.085
495.00	93.728
496.00	94.397
497.00	94.326
498.00	94.464
499.00	94.614
500.00	94.304
501.00	95.131
502.00	95.625
503.00	94.856
504.00	94.636
505.00	95.058
506.00	95.044
507.00	94.800
508.00	95.417
509.00	94.926
510.00	93.886
511.00	94.133
512.00	93.824
513.00	95.062
514.00	93.609
515.00	94.805
516.00	94.218
517.00	93.844
518.00	95.019
519.00	94.059
520.00	93.764
521.00	94.629
522.00	94.422
523.00	94.633
524.00	94.992
525.00	94.670
526.00	94.373
527.00	94.072
528.00	94.308
529.00	94.138
530.00	93.561
531.00	93.502
532.00	94.194
533.00	93.649
534.00	93.817
535.00	93.522
536.00	93.431
537.00	93.723
538.00	94.288
539.00	93.183
540.00	93.967
541.00	93.735
542.00	93.535
543.00	93.181
544.00	93.970
545.00	92.994
546.00	93.955
547.00	94.362
548.00	93.661
549.00	94.355
550.00	94.174
551.00	93.099
552.00	93.583
553.00	92.882
554.00	93.604
555.00	92.999
556.00	93.677
557.00	93.498
558.00	93.236
559.00	93.484
560.00	92.798
561.00	92.926
562.00	93.234
563.00	92.590
564.00	93.420
565.00	93.115
566.00	93.093
567.00	93.198
568.00	93.770
569.00	93.417
570.00	92.995
571.00	92.867
572.00	93.688
573.00	93.587
574.00	93.489
575.00	93.411
576.00	93.753
577.00	93.595
578.00	93.733
579.00	93.681
580.00	93.031
581.00	93.373
582.00	93.049
583.00	93.331
584.00	92.792
585.00	93.205
586.00	92.857
587.00	92.899
588.00	92.762
589.00	93.097
590.00	92.625
591.00	92.578
592.00	93.092
593.00	92.876
594.00	93.310
595.00	92.530
596.00	92.702
597.00	92.587
598.00	92.823
599.00	92.932
600.00	92.339
601.00	92.855
602.00	92.973
603.00	93.351
604.00	93.300
605.00	92.874
606.00	92.637
607.00	92.922
608.00	92.941
609.00	92.489
610.00	92.525
611.00	92.770
612.00	93.055
613.00	92.798
614.00	92.994
615.00	92.600
616.00	92.455
617.00	92.831
618.00	92.276
619.00	92.402
620.00	92.307
621.00	92.305
622.00	92.140
623.00	92.617
624.00	92.395
625.00	92.352
626.00	92.683
627.00	92.715
628.00	93.007
629.00	92.453
630.00	93.296
631.00	92.582
632.00	92.314
633.00	92.693
634.00	92.930
635.00	92.290
636.00	92.637
637.00	92.530
638.00	93.478
639.00	92.897
640.00	93.429
641.00	93.659
642.00	93.066
643.00	93.289
644.00	93.636
645.00	93.023
646.00	93.200
647.00	93.282
648.00	93.277
649.00	93.075
650.00	93.505
651.00	93.309
652.00	93.183
653.00	93.196
654.00	93.318
655.00	93.303
656.00	92.866
657.00	93.659
658.00	93.869
659.00	93.310
660.00	93.064
661.00	93.287
662.00	93.214
663.00	93.620
664.00	93.719
665.00	94.104
666.00	93.067
667.00	94.137
668.00	93.259
669.00	93.656
670.00	94.002
671.00	94.040
672.00	93.581
673.00	94.128
674.00	94.497
675.00	94.398
676.00	94.365
677.00	94.087
678.00	94.218
679.00	94.141
680.00	94.427
681.00	93.795
682.00	94.254
683.00	94.371
684.00	93.854
685.00	93.695
686.00	93.959
687.00	94.107
688.00	94.965
689.00	93.539
690.00	94.070
691.00	93.646
692.00	94.730
693.00	93.700
694.00	94.060
695.00	93.904
696.00	93.805
697.00	93.690
698.00	93.402
699.00	93.144
700.00	93.077
701.00	93.433
702.00	93.054
703.00	93.766
704.00	92.954
705.00	92.837
706.00	92.976
707.00	92.955
708.00	92.757
709.00	93.266
710.00	92.399
711.00	92.536
712.00	92.240
713.00	92.510
714.00	92.766
715.00	91.757
716.00	91.774
717.00	91.908
718.00	91.847
719.00	91.746
720.00	91.748
721.00	91.707
722.00	92.090
723.00	91.394
724.00	90.663
725.00	91.534
726.00	91.202
727.00	90.869
728.00	90.712
729.00	90.734
730.00	90.312
731.00	91.603
732.00	90.723
733.00	91.225
734.00	90.369
735.00	90.353
736.00	90.185
737.00	90.004
738.00	90.077
739.00	89.211
740.00	88.705
741.00	89.278
742.00	88.900
743.00	89.760
744.00	88.899
745.00	88.529
746.00	88.789
747.00	88.690
748.00	88.968
749.00	88.358
750.00	87.310
751.00	88.106
752.00	86.947
753.00	87.540
754.00	87.599
755.00	87.835
756.00	87.199
757.00	87.271
758.00	87.049
759.00	86.652
760.00	86.529
761.00	86.344
762.00	86.484
763.00	85.904
764.00	86.651
765.00	86.430
766.00	86.322
767.00	85.251
768.00	86.078
769.00	84.725
770.00	84.550
771.00	85.049
772.00	85.402
773.00	84.876
774.00	84.347
775.00	84.069
776.00	83.640
777.00	82.747
778.00	83.258
779.00	83.129
780.00	82.387
781.00	82.758
782.00	82.491
783.00	82.057
784.00	82.100
785.00	81.969
786.00	82.346
787.00	81.726
788.00	80.793
789.00	81.226
790.00	81.505
791.00	80.229
792.00	79.898
793.00	80.913
794.00	79.508
795.00	79.598
796.00	79.957
797.00	79.749
798.00	79.342
799.00	79.130
800.00	78.706
801.00	77.911
802.00	77.987
803.00	77.587
804.00	78.028
805.00	77.342
806.00	77.520
807.00	76.623
808.00	76.673
809.00	76.443
810.00	76.084
811.00	75.643
812.00	75.973
813.00	74.154
814.00	74.282
815.00	75.041
816.00	75.112
817.00	74.325
818.00	74.508
819.00	74.429
820.00	74.328
821.00	73.245
822.00	73.262
823.00	72.937
824.00	73.485
825.00	72.482
826.00	71.968
827.00	71.508
828.00	71.376
829.00	71.755
830.00	70.875
831.00	71.238
832.00	69.973
833.00	70.755
834.00	70.964
835.00	69.544
836.00	70.435
837.00	68.902
838.00	68.716
839.00	69.416
840.00	69.000
841.00	67.383
842.00	68.629
843.00	68.421
844.00	68.256
845.00	67.010
846.00	67.317
847.00	67.151
848.00	66.214
849.00	66.852
850.00	65.531
851.00	65.474
852.00	65.604
853.00	64.615
854.00	65.234
855.00	65.127
856.00	62.844
857.00	62.725
858.00	62.828
859.00	63.764
860.00	63.527
861.00	62.184
862.00	62.604
863.00	62.030
864.00	61.514
865.00	61.741
866.00	60.305
867.00	62.128
868.00	60.112
869.00	60.383
870.00	59.795
871.00	61.203
872.00	59.085
873.00	60.439
874.00	59.876
875.00	59.421
876.00	59.505
877.00	58.943
878.00	58.153
879.00	58.242
880.00	58.582
881.00	58.830
882.00	58.619
883.00	56.769
884.00	58.674
885.00	57.528
886.00	57.464
887.00	55.536
888.00	57.858
889.00	57.314
890.00	58.775
891.00	57.635
892.00	57.293
893.00	56.806
894.00	57.856
895.00	57.642
896.00	57.263
897.00	56.473
898.00	56.003
899.00	55.471
900.00	55.250
901.00	56.250
902.00	56.778
903.00	57.679
904.00	57.495
905.00	57.632
906.00	57.650
907.00	57.416
908.00	57.328
909.00	56.807
910.00	56.991
911.00	57.602
912.00	57.663
913.00	61.334
914.00	58.574
915.00	60.257
916.00	60.065
917.00	60.682
918.00	61.464
919.00	60.879
920.00	61.397
921.00	62.595
922.00	64.843
923.00	64.981
924.00	64.303
925.00	63.409
926.00	61.921
927.00	61.267
928.00	64.472
929.00	65.005
930.00	66.640
931.00	66.252
932.00	63.789
933.00	66.367
934.00	67.828
935.00	66.935
936.00	69.053
937.00	67.234
938.00	70.772
939.00	68.911
940.00	68.171
941.00	70.788
942.00	68.982
943.00	67.896
944.00	71.279
945.00	70.878
946.00	73.341
947.00	73.443
948.00	71.003
949.00	72.758
950.00	72.181
951.00	68.353
952.00	72.323
953.00	71.342
954.00	70.598
955.00	69.966
956.00	73.820
957.00	75.113
958.00	81.138
959.00	74.808
960.00	77.307
961.00	77.252
962.00	73.088
963.00	78.079
964.00	80.943
965.00	75.804
966.00	70.796
967.00	78.082
968.00	82.075
969.00	75.374
970.00	78.159
971.00	84.038
972.00	76.483
973.00	87.081
974.00	82.823
975.00	76.348
976.00	90.325
977.00	73.659
978.00	86.221
979.00	72.385
980.00	85.837
981.00	90.588
982.00	82.463
983.00	82.232
984.00	83.846
985.00	77.350
986.00	74.941
987.00	81.988
988.00	84.733
989.00	81.748
990.00	85.689
991.00	72.878
992.00	74.431
993.00	72.687
994.00	97.423
995.00	85.057
996.00	81.264
997.00	86.719
998.00	89.772
999.00	85.368
1000.00	92.935
>>>>>End Processed Spectral Data<<<<<
