SpectraSuite Data File
++++++++++++++++++++++++++++++++++++
Date: Thu Nov 20 12:04:09 CET 2014
User: admin
Dark Spectrum Present: Yes
Reference Spectrum Present: Yes
Number of Sampled Component Spectra: 1
Spectrometers: USB2G49547
Integration Time (usec): 300000 (USB2G49547)
Spectra Averaged: 8 (USB2G49547)
Boxcar Smoothing: 0 (USB2G49547)
Correct for Electrical Dark: No (USB2G49547)
Strobe/Lamp Enabled: No (USB2G49547)
Correct for Detector Non-linearity: No (USB2G49547)
Correct for Stray Light: No (USB2G49547)
Number of Pixels in Processed Spectrum: 651
>>>>>Begin Processed Spectral Data<<<<<
350.00	71.763
351.00	88.196
352.00	77.911
353.00	86.900
354.00	73.358
355.00	107.524
356.00	77.962
357.00	340.540
358.00	80.224
359.00	143.637
360.00	90.529
361.00	84.033
362.00	127.351
363.00	78.465
364.00	165.318
365.00	148.576
366.00	104.464
367.00	26.861
368.00	116.825
369.00	61.956
370.00	90.437
371.00	50.547
372.00	122.769
373.00	99.190
374.00	54.362
375.00	87.495
376.00	68.717
377.00	62.307
378.00	73.550
379.00	107.663
380.00	75.688
381.00	102.377
382.00	102.852
383.00	91.123
384.00	63.272
385.00	87.627
386.00	106.882
387.00	62.975
388.00	100.595
389.00	54.421
390.00	78.307
391.00	63.369
392.00	60.091
393.00	89.311
394.00	68.962
395.00	107.262
396.00	82.644
397.00	104.848
398.00	87.461
399.00	92.049
400.00	61.691
401.00	112.281
402.00	96.765
403.00	95.639
404.00	61.658
405.00	86.544
406.00	98.848
407.00	85.407
408.00	90.145
409.00	94.241
410.00	99.543
411.00	127.051
412.00	81.932
413.00	79.808
414.00	82.985
415.00	95.726
416.00	87.902
417.00	105.414
418.00	83.939
419.00	105.866
420.00	105.639
421.00	88.366
422.00	86.326
423.00	88.845
424.00	90.413
425.00	87.024
426.00	104.265
427.00	113.608
428.00	96.595
429.00	95.190
430.00	86.771
431.00	90.630
432.00	91.067
433.00	94.866
434.00	91.987
435.00	89.817
436.00	92.891
437.00	94.149
438.00	93.441
439.00	94.073
440.00	90.823
441.00	100.843
442.00	99.068
443.00	94.668
444.00	92.782
445.00	93.849
446.00	101.867
447.00	94.533
448.00	95.983
449.00	96.585
450.00	99.930
451.00	93.247
452.00	97.704
453.00	98.562
454.00	95.277
455.00	98.295
456.00	100.524
457.00	94.230
458.00	94.382
459.00	95.359
460.00	99.368
461.00	97.022
462.00	94.905
463.00	93.573
464.00	97.893
465.00	95.637
466.00	95.836
467.00	96.428
468.00	94.349
469.00	96.125
470.00	94.270
471.00	100.488
472.00	97.694
473.00	97.900
474.00	96.482
475.00	96.784
476.00	97.371
477.00	97.623
478.00	97.238
479.00	95.931
480.00	96.284
481.00	95.312
482.00	93.849
483.00	96.986
484.00	95.674
485.00	97.019
486.00	96.987
487.00	97.604
488.00	96.558
489.00	97.212
490.00	96.777
491.00	95.446
492.00	95.676
493.00	97.345
494.00	94.905
495.00	96.897
496.00	96.391
497.00	95.495
498.00	96.109
499.00	95.324
500.00	96.517
501.00	96.363
502.00	96.158
503.00	96.776
504.00	96.695
505.00	96.008
506.00	96.958
507.00	96.712
508.00	95.685
509.00	95.612
510.00	95.709
511.00	96.441
512.00	96.462
513.00	96.724
514.00	96.507
515.00	96.230
516.00	96.595
517.00	97.283
518.00	96.177
519.00	97.023
520.00	96.730
521.00	96.281
522.00	95.448
523.00	95.979
524.00	96.698
525.00	95.872
526.00	97.069
527.00	96.203
528.00	96.069
529.00	94.305
530.00	94.969
531.00	95.721
532.00	95.663
533.00	95.995
534.00	96.150
535.00	96.200
536.00	94.934
537.00	95.804
538.00	95.449
539.00	95.970
540.00	95.667
541.00	95.262
542.00	95.533
543.00	96.002
544.00	95.720
545.00	95.565
546.00	95.389
547.00	95.509
548.00	95.149
549.00	95.637
550.00	95.293
551.00	94.565
552.00	94.790
553.00	95.379
554.00	94.919
555.00	95.184
556.00	94.921
557.00	95.225
558.00	94.527
559.00	95.140
560.00	95.264
561.00	95.134
562.00	94.733
563.00	95.115
564.00	94.959
565.00	94.655
566.00	95.320
567.00	95.100
568.00	94.846
569.00	95.158
570.00	94.660
571.00	95.571
572.00	95.479
573.00	94.917
574.00	94.591
575.00	94.998
576.00	94.794
577.00	94.789
578.00	94.723
579.00	94.553
580.00	94.671
581.00	94.955
582.00	95.035
583.00	94.985
584.00	94.638
585.00	94.396
586.00	94.604
587.00	94.646
588.00	94.285
589.00	94.470
590.00	94.180
591.00	94.839
592.00	94.142
593.00	94.252
594.00	94.377
595.00	94.194
596.00	94.146
597.00	94.565
598.00	94.157
599.00	94.399
600.00	94.765
601.00	93.927
602.00	94.097
603.00	94.420
604.00	94.186
605.00	94.820
606.00	94.742
607.00	94.679
608.00	94.530
609.00	94.265
610.00	93.844
611.00	93.777
612.00	94.163
613.00	94.399
614.00	94.279
615.00	94.094
616.00	94.635
617.00	94.000
618.00	94.943
619.00	94.659
620.00	94.402
621.00	94.919
622.00	94.828
623.00	94.302
624.00	95.020
625.00	94.720
626.00	94.383
627.00	94.950
628.00	94.734
629.00	95.419
630.00	95.161
631.00	94.687
632.00	95.100
633.00	94.813
634.00	95.223
635.00	94.891
636.00	95.246
637.00	95.447
638.00	94.958
639.00	95.196
640.00	95.581
641.00	95.631
642.00	95.627
643.00	95.909
644.00	95.835
645.00	95.343
646.00	95.576
647.00	95.765
648.00	95.572
649.00	95.566
650.00	95.868
651.00	95.807
652.00	95.600
653.00	96.450
654.00	96.504
655.00	95.887
656.00	96.212
657.00	96.161
658.00	95.549
659.00	95.323
660.00	95.867
661.00	95.700
662.00	95.350
663.00	96.217
664.00	95.884
665.00	96.046
666.00	96.419
667.00	96.369
668.00	96.353
669.00	96.403
670.00	96.493
671.00	96.473
672.00	96.757
673.00	96.445
674.00	96.601
675.00	96.490
676.00	96.718
677.00	96.645
678.00	96.621
679.00	96.660
680.00	96.362
681.00	97.139
682.00	97.015
683.00	96.879
684.00	97.073
685.00	97.135
686.00	97.142
687.00	97.438
688.00	97.252
689.00	96.791
690.00	96.760
691.00	96.901
692.00	97.051
693.00	96.465
694.00	96.308
695.00	96.225
696.00	97.083
697.00	96.257
698.00	96.346
699.00	95.849
700.00	95.953
701.00	96.779
702.00	96.573
703.00	95.930
704.00	96.757
705.00	95.624
706.00	95.543
707.00	95.281
708.00	95.421
709.00	95.456
710.00	95.083
711.00	95.640
712.00	96.263
713.00	95.102
714.00	95.538
715.00	94.727
716.00	95.281
717.00	95.359
718.00	94.775
719.00	95.403
720.00	94.646
721.00	94.860
722.00	94.587
723.00	94.923
724.00	94.892
725.00	94.504
726.00	94.276
727.00	93.830
728.00	93.737
729.00	93.880
730.00	93.257
731.00	93.768
732.00	93.550
733.00	93.406
734.00	94.128
735.00	92.986
736.00	92.761
737.00	92.941
738.00	92.819
739.00	92.615
740.00	93.192
741.00	92.844
742.00	92.321
743.00	92.575
744.00	91.544
745.00	91.680
746.00	91.023
747.00	91.207
748.00	91.137
749.00	91.494
750.00	89.910
751.00	90.265
752.00	90.182
753.00	90.631
754.00	90.335
755.00	89.818
756.00	89.648
757.00	89.235
758.00	88.683
759.00	88.516
760.00	89.050
761.00	88.459
762.00	88.768
763.00	88.097
764.00	87.910
765.00	87.586
766.00	87.065
767.00	87.446
768.00	86.781
769.00	85.744
770.00	85.819
771.00	86.632
772.00	85.085
773.00	84.863
774.00	85.413
775.00	84.103
776.00	84.366
777.00	84.000
778.00	83.975
779.00	82.567
780.00	82.997
781.00	82.824
782.00	82.569
783.00	81.731
784.00	81.232
785.00	80.947
786.00	80.293
787.00	80.712
788.00	79.630
789.00	79.381
790.00	79.165
791.00	78.828
792.00	77.699
793.00	78.336
794.00	78.165
795.00	76.426
796.00	76.863
797.00	76.137
798.00	76.306
799.00	75.269
800.00	74.815
801.00	74.679
802.00	74.190
803.00	74.584
804.00	73.287
805.00	73.586
806.00	71.978
807.00	71.547
808.00	71.448
809.00	72.588
810.00	71.634
811.00	70.481
812.00	70.266
813.00	69.022
814.00	68.831
815.00	69.365
816.00	68.975
817.00	68.142
818.00	68.602
819.00	67.242
820.00	68.007
821.00	67.523
822.00	66.339
823.00	66.107
824.00	66.167
825.00	65.055
826.00	64.624
827.00	64.220
828.00	64.202
829.00	63.537
830.00	64.772
831.00	63.838
832.00	63.152
833.00	62.504
834.00	63.521
835.00	62.668
836.00	62.255
837.00	60.964
838.00	60.847
839.00	61.504
840.00	61.757
841.00	59.740
842.00	60.292
843.00	61.871
844.00	61.705
845.00	59.297
846.00	59.649
847.00	59.052
848.00	59.162
849.00	60.500
850.00	59.231
851.00	59.944
852.00	58.553
853.00	58.758
854.00	59.583
855.00	57.360
856.00	58.097
857.00	58.633
858.00	58.421
859.00	58.636
860.00	59.327
861.00	59.451
862.00	57.155
863.00	58.688
864.00	57.787
865.00	59.085
866.00	58.731
867.00	58.580
868.00	58.354
869.00	57.766
870.00	57.687
871.00	57.056
872.00	57.811
873.00	57.566
874.00	58.708
875.00	57.874
876.00	58.278
877.00	57.944
878.00	57.570
879.00	57.548
880.00	60.531
881.00	58.463
882.00	59.197
883.00	59.909
884.00	57.816
885.00	58.433
886.00	58.577
887.00	58.683
888.00	60.239
889.00	59.941
890.00	58.413
891.00	58.545
892.00	60.820
893.00	60.487
894.00	62.044
895.00	61.355
896.00	60.469
897.00	61.617
898.00	62.590
899.00	63.437
900.00	63.395
901.00	63.878
902.00	62.983
903.00	63.963
904.00	62.132
905.00	64.516
906.00	63.614
907.00	63.484
908.00	65.013
909.00	63.483
910.00	64.889
911.00	65.609
912.00	64.362
913.00	66.943
914.00	64.517
915.00	63.188
916.00	67.134
917.00	68.140
918.00	67.222
919.00	69.163
920.00	67.925
921.00	65.370
922.00	67.010
923.00	68.252
924.00	67.952
925.00	69.776
926.00	67.487
927.00	69.313
928.00	68.646
929.00	70.499
930.00	68.875
931.00	69.574
932.00	73.761
933.00	71.099
934.00	73.733
935.00	69.004
936.00	73.507
937.00	72.059
938.00	70.063
939.00	73.377
940.00	76.283
941.00	73.288
942.00	73.519
943.00	71.605
944.00	75.370
945.00	74.882
946.00	70.409
947.00	76.841
948.00	72.487
949.00	77.277
950.00	72.681
951.00	73.287
952.00	74.690
953.00	83.213
954.00	74.145
955.00	70.511
956.00	78.822
957.00	76.138
958.00	73.261
959.00	76.251
960.00	77.492
961.00	83.365
962.00	80.780
963.00	78.004
964.00	75.141
965.00	77.324
966.00	84.395
967.00	82.113
968.00	89.448
969.00	74.279
970.00	83.285
971.00	83.123
972.00	75.703
973.00	80.606
974.00	81.925
975.00	99.519
976.00	81.408
977.00	72.266
978.00	85.935
979.00	86.965
980.00	83.960
981.00	91.989
982.00	82.016
983.00	91.429
984.00	77.634
985.00	88.518
986.00	71.856
987.00	79.624
988.00	83.033
989.00	84.669
990.00	87.206
991.00	89.080
992.00	84.064
993.00	92.177
994.00	95.196
995.00	114.140
996.00	67.845
997.00	91.791
998.00	89.315
999.00	82.350
1000.00	89.034
>>>>>End Processed Spectral Data<<<<<
