SpectraSuite Data File
++++++++++++++++++++++++++++++++++++
Date: Thu Nov 20 12:03:22 CET 2014
User: admin
Dark Spectrum Present: Yes
Reference Spectrum Present: Yes
Number of Sampled Component Spectra: 1
Spectrometers: USB2G49547
Integration Time (usec): 300000 (USB2G49547)
Spectra Averaged: 8 (USB2G49547)
Boxcar Smoothing: 0 (USB2G49547)
Correct for Electrical Dark: No (USB2G49547)
Strobe/Lamp Enabled: No (USB2G49547)
Correct for Detector Non-linearity: No (USB2G49547)
Correct for Stray Light: No (USB2G49547)
Number of Pixels in Processed Spectrum: 651
>>>>>Begin Processed Spectral Data<<<<<
350.00	72.196
351.00	92.374
352.00	70.212
353.00	78.798
354.00	56.770
355.00	109.236
356.00	104.119
357.00	577.681
358.00	67.010
359.00	84.197
360.00	117.302
361.00	80.896
362.00	116.554
363.00	90.224
364.00	140.450
365.00	135.033
366.00	117.763
367.00	99.230
368.00	103.006
369.00	88.452
370.00	98.316
371.00	56.084
372.00	77.207
373.00	81.636
374.00	82.400
375.00	112.186
376.00	98.562
377.00	74.738
378.00	77.383
379.00	77.635
380.00	70.745
381.00	71.575
382.00	101.454
383.00	85.219
384.00	64.462
385.00	91.871
386.00	95.898
387.00	82.723
388.00	118.912
389.00	74.605
390.00	75.821
391.00	106.931
392.00	59.693
393.00	87.758
394.00	91.614
395.00	89.763
396.00	85.374
397.00	67.546
398.00	93.006
399.00	82.932
400.00	87.807
401.00	94.141
402.00	102.922
403.00	128.727
404.00	94.685
405.00	91.149
406.00	106.655
407.00	80.036
408.00	99.289
409.00	101.607
410.00	98.260
411.00	113.758
412.00	98.500
413.00	126.331
414.00	76.252
415.00	96.918
416.00	84.357
417.00	92.149
418.00	66.919
419.00	76.089
420.00	100.651
421.00	95.315
422.00	90.990
423.00	89.839
424.00	105.789
425.00	89.480
426.00	92.407
427.00	92.079
428.00	92.073
429.00	99.177
430.00	90.062
431.00	97.091
432.00	85.240
433.00	94.768
434.00	90.169
435.00	84.945
436.00	90.597
437.00	84.722
438.00	91.942
439.00	87.988
440.00	96.219
441.00	94.136
442.00	98.832
443.00	99.167
444.00	96.282
445.00	94.910
446.00	95.458
447.00	89.391
448.00	90.500
449.00	93.763
450.00	91.432
451.00	97.914
452.00	94.669
453.00	101.721
454.00	95.139
455.00	96.697
456.00	96.607
457.00	96.052
458.00	91.414
459.00	94.545
460.00	93.562
461.00	92.499
462.00	92.839
463.00	94.787
464.00	97.821
465.00	96.115
466.00	91.109
467.00	94.477
468.00	95.321
469.00	92.508
470.00	95.464
471.00	94.441
472.00	94.383
473.00	95.669
474.00	93.878
475.00	93.687
476.00	96.008
477.00	95.918
478.00	95.148
479.00	95.669
480.00	94.850
481.00	93.291
482.00	94.172
483.00	94.673
484.00	93.148
485.00	95.691
486.00	95.525
487.00	95.303
488.00	94.637
489.00	95.213
490.00	93.813
491.00	95.283
492.00	94.270
493.00	96.201
494.00	94.393
495.00	94.861
496.00	94.562
497.00	94.131
498.00	94.741
499.00	94.603
500.00	95.125
501.00	95.447
502.00	94.716
503.00	94.761
504.00	95.345
505.00	93.979
506.00	95.317
507.00	94.932
508.00	94.208
509.00	94.177
510.00	95.600
511.00	95.099
512.00	94.642
513.00	95.154
514.00	94.547
515.00	94.919
516.00	95.613
517.00	95.684
518.00	94.544
519.00	94.890
520.00	94.555
521.00	94.608
522.00	94.709
523.00	95.085
524.00	94.975
525.00	94.841
526.00	94.973
527.00	94.792
528.00	94.842
529.00	94.007
530.00	94.454
531.00	94.874
532.00	94.374
533.00	94.844
534.00	95.097
535.00	94.321
536.00	93.596
537.00	94.529
538.00	94.426
539.00	95.030
540.00	94.438
541.00	94.453
542.00	94.776
543.00	95.087
544.00	95.521
545.00	94.702
546.00	94.447
547.00	94.822
548.00	94.330
549.00	94.296
550.00	94.313
551.00	93.814
552.00	94.236
553.00	94.545
554.00	93.981
555.00	94.599
556.00	93.902
557.00	94.335
558.00	94.064
559.00	94.175
560.00	93.924
561.00	94.394
562.00	93.722
563.00	94.104
564.00	93.722
565.00	93.886
566.00	94.488
567.00	93.952
568.00	94.217
569.00	93.938
570.00	93.882
571.00	94.303
572.00	94.174
573.00	94.098
574.00	93.816
575.00	94.440
576.00	94.132
577.00	93.701
578.00	93.735
579.00	93.889
580.00	94.003
581.00	93.937
582.00	94.017
583.00	94.142
584.00	94.009
585.00	93.828
586.00	93.724
587.00	93.869
588.00	93.656
589.00	93.842
590.00	93.567
591.00	93.697
592.00	93.738
593.00	93.405
594.00	93.887
595.00	93.391
596.00	93.675
597.00	93.603
598.00	93.711
599.00	93.675
600.00	94.137
601.00	93.604
602.00	93.568
603.00	94.142
604.00	93.685
605.00	94.022
606.00	93.677
607.00	93.969
608.00	93.507
609.00	93.228
610.00	93.161
611.00	93.367
612.00	93.649
613.00	93.840
614.00	93.676
615.00	93.291
616.00	93.879
617.00	93.410
618.00	94.058
619.00	94.012
620.00	93.562
621.00	93.945
622.00	93.754
623.00	93.833
624.00	93.812
625.00	93.447
626.00	93.666
627.00	94.293
628.00	94.083
629.00	94.763
630.00	94.823
631.00	94.378
632.00	94.345
633.00	94.192
634.00	94.564
635.00	94.372
636.00	94.577
637.00	95.033
638.00	94.450
639.00	94.590
640.00	94.633
641.00	94.738
642.00	94.774
643.00	94.820
644.00	94.677
645.00	94.993
646.00	95.148
647.00	95.168
648.00	95.213
649.00	94.995
650.00	94.777
651.00	95.253
652.00	95.407
653.00	95.153
654.00	95.625
655.00	94.948
656.00	95.191
657.00	95.311
658.00	94.646
659.00	94.601
660.00	95.139
661.00	95.173
662.00	95.098
663.00	95.355
664.00	95.281
665.00	94.943
666.00	96.236
667.00	95.736
668.00	95.559
669.00	95.896
670.00	95.764
671.00	95.286
672.00	95.824
673.00	95.628
674.00	95.483
675.00	95.775
676.00	95.553
677.00	95.863
678.00	95.759
679.00	96.103
680.00	96.025
681.00	96.474
682.00	96.006
683.00	96.065
684.00	96.339
685.00	96.580
686.00	96.120
687.00	96.483
688.00	96.329
689.00	95.801
690.00	95.740
691.00	95.894
692.00	96.510
693.00	96.110
694.00	95.684
695.00	95.349
696.00	96.215
697.00	95.378
698.00	95.084
699.00	95.479
700.00	95.217
701.00	95.493
702.00	95.790
703.00	95.793
704.00	95.477
705.00	94.810
706.00	94.732
707.00	94.454
708.00	94.832
709.00	94.821
710.00	94.416
711.00	94.908
712.00	95.177
713.00	94.471
714.00	94.310
715.00	93.590
716.00	94.668
717.00	94.998
718.00	94.117
719.00	93.765
720.00	94.073
721.00	94.164
722.00	94.223
723.00	93.984
724.00	93.777
725.00	93.703
726.00	93.249
727.00	93.067
728.00	92.940
729.00	92.797
730.00	92.925
731.00	93.220
732.00	92.666
733.00	92.876
734.00	92.452
735.00	92.196
736.00	91.746
737.00	91.836
738.00	92.492
739.00	91.702
740.00	92.007
741.00	91.567
742.00	91.445
743.00	91.323
744.00	91.164
745.00	90.692
746.00	90.330
747.00	90.781
748.00	90.356
749.00	90.666
750.00	89.341
751.00	89.338
752.00	89.029
753.00	89.680
754.00	89.901
755.00	89.209
756.00	89.102
757.00	88.389
758.00	87.896
759.00	88.007
760.00	87.961
761.00	87.159
762.00	87.474
763.00	86.357
764.00	86.785
765.00	86.919
766.00	86.914
767.00	86.474
768.00	85.772
769.00	84.475
770.00	84.888
771.00	85.193
772.00	84.515
773.00	84.481
774.00	84.192
775.00	83.201
776.00	83.541
777.00	82.961
778.00	82.909
779.00	82.653
780.00	82.909
781.00	81.630
782.00	81.803
783.00	81.615
784.00	80.602
785.00	80.058
786.00	80.214
787.00	80.386
788.00	79.062
789.00	78.227
790.00	78.331
791.00	77.967
792.00	78.141
793.00	77.264
794.00	77.571
795.00	76.397
796.00	76.376
797.00	75.673
798.00	75.527
799.00	74.676
800.00	74.744
801.00	74.726
802.00	73.748
803.00	73.965
804.00	73.518
805.00	73.036
806.00	71.935
807.00	71.053
808.00	71.137
809.00	72.275
810.00	70.579
811.00	69.722
812.00	70.240
813.00	68.688
814.00	68.944
815.00	69.175
816.00	68.397
817.00	67.323
818.00	67.824
819.00	67.215
820.00	67.630
821.00	66.944
822.00	66.616
823.00	65.852
824.00	65.505
825.00	65.355
826.00	64.302
827.00	63.741
828.00	65.051
829.00	63.578
830.00	64.471
831.00	63.998
832.00	63.377
833.00	62.417
834.00	62.926
835.00	62.299
836.00	61.553
837.00	61.000
838.00	61.202
839.00	62.728
840.00	61.194
841.00	60.708
842.00	60.338
843.00	61.391
844.00	61.187
845.00	60.616
846.00	59.587
847.00	59.893
848.00	60.268
849.00	60.539
850.00	58.663
851.00	59.711
852.00	59.024
853.00	59.005
854.00	59.450
855.00	57.929
856.00	57.780
857.00	58.012
858.00	58.460
859.00	57.916
860.00	60.254
861.00	58.525
862.00	58.511
863.00	58.428
864.00	56.042
865.00	58.347
866.00	58.017
867.00	58.820
868.00	56.870
869.00	57.893
870.00	56.916
871.00	56.961
872.00	57.564
873.00	58.290
874.00	58.173
875.00	57.777
876.00	58.038
877.00	56.191
878.00	56.979
879.00	56.205
880.00	58.866
881.00	57.957
882.00	58.529
883.00	58.914
884.00	58.971
885.00	58.843
886.00	58.258
887.00	58.615
888.00	58.468
889.00	60.084
890.00	58.494
891.00	58.669
892.00	60.675
893.00	60.159
894.00	62.032
895.00	61.820
896.00	59.916
897.00	62.947
898.00	61.914
899.00	60.979
900.00	62.192
901.00	63.098
902.00	62.667
903.00	61.699
904.00	62.448
905.00	64.594
906.00	63.615
907.00	63.085
908.00	66.256
909.00	63.200
910.00	62.372
911.00	65.444
912.00	63.395
913.00	67.251
914.00	64.341
915.00	65.059
916.00	67.052
917.00	66.402
918.00	65.611
919.00	66.792
920.00	67.385
921.00	63.501
922.00	68.839
923.00	69.077
924.00	67.881
925.00	68.767
926.00	68.721
927.00	66.046
928.00	68.771
929.00	69.525
930.00	69.173
931.00	68.067
932.00	71.321
933.00	67.206
934.00	70.021
935.00	68.313
936.00	70.777
937.00	73.724
938.00	73.909
939.00	68.748
940.00	72.970
941.00	71.747
942.00	75.442
943.00	70.416
944.00	74.383
945.00	72.274
946.00	73.831
947.00	78.057
948.00	72.048
949.00	73.345
950.00	74.442
951.00	76.622
952.00	78.343
953.00	76.034
954.00	73.562
955.00	72.690
956.00	77.867
957.00	75.062
958.00	74.973
959.00	80.357
960.00	77.654
961.00	80.991
962.00	78.686
963.00	77.273
964.00	79.428
965.00	76.601
966.00	80.243
967.00	80.766
968.00	78.863
969.00	77.434
970.00	84.385
971.00	72.129
972.00	79.556
973.00	87.915
974.00	71.990
975.00	83.363
976.00	80.198
977.00	82.034
978.00	76.174
979.00	92.693
980.00	86.711
981.00	83.280
982.00	80.033
983.00	80.908
984.00	80.800
985.00	86.608
986.00	79.201
987.00	78.909
988.00	85.723
989.00	89.936
990.00	83.804
991.00	97.575
992.00	70.162
993.00	75.816
994.00	94.873
995.00	118.971
996.00	92.718
997.00	84.725
998.00	78.421
999.00	79.716
1000.00	96.716
>>>>>End Processed Spectral Data<<<<<
