SpectraSuite Data File
++++++++++++++++++++++++++++++++++++
Date: Thu Nov 20 11:56:51 CET 2014
User: admin
Dark Spectrum Present: Yes
Reference Spectrum Present: Yes
Number of Sampled Component Spectra: 1
Spectrometers: USB2G49547
Integration Time (usec): 300000 (USB2G49547)
Spectra Averaged: 8 (USB2G49547)
Boxcar Smoothing: 0 (USB2G49547)
Correct for Electrical Dark: No (USB2G49547)
Strobe/Lamp Enabled: No (USB2G49547)
Correct for Detector Non-linearity: No (USB2G49547)
Correct for Stray Light: No (USB2G49547)
Number of Pixels in Processed Spectrum: 651
>>>>>Begin Processed Spectral Data<<<<<
350.00	190.374
351.00	34.016
352.00	39.253
353.00	122.843
354.00	178.582
355.00	85.546
356.00	91.934
357.00	62.405
358.00	159.320
359.00	147.891
360.00	71.226
361.00	64.176
362.00	272.335
363.00	169.861
364.00	64.195
365.00	93.155
366.00	93.294
367.00	115.624
368.00	149.854
369.00	60.361
370.00	1887.185
371.00	131.396
372.00	101.144
373.00	175.236
374.00	25.063
375.00	93.970
376.00	103.991
377.00	115.280
378.00	62.183
379.00	186.923
380.00	72.591
381.00	39.052
382.00	61.552
383.00	80.278
384.00	84.736
385.00	108.365
386.00	150.549
387.00	79.319
388.00	107.604
389.00	96.863
390.00	92.173
391.00	31.118
392.00	143.822
393.00	54.681
394.00	80.274
395.00	83.946
396.00	80.290
397.00	64.260
398.00	63.401
399.00	56.157
400.00	109.666
401.00	119.006
402.00	95.184
403.00	124.371
404.00	56.478
405.00	81.106
406.00	114.608
407.00	102.286
408.00	103.018
409.00	100.273
410.00	68.838
411.00	90.973
412.00	110.440
413.00	111.615
414.00	106.553
415.00	90.192
416.00	72.707
417.00	116.200
418.00	100.822
419.00	103.829
420.00	96.681
421.00	93.714
422.00	110.605
423.00	91.042
424.00	85.110
425.00	96.407
426.00	92.858
427.00	85.744
428.00	91.147
429.00	94.454
430.00	104.711
431.00	98.248
432.00	89.871
433.00	86.840
434.00	88.930
435.00	108.785
436.00	103.951
437.00	104.557
438.00	96.561
439.00	95.071
440.00	92.982
441.00	95.488
442.00	96.494
443.00	93.976
444.00	88.532
445.00	93.559
446.00	94.421
447.00	89.617
448.00	94.488
449.00	95.056
450.00	99.479
451.00	92.685
452.00	98.661
453.00	94.883
454.00	92.479
455.00	95.411
456.00	94.170
457.00	91.190
458.00	91.524
459.00	93.458
460.00	92.982
461.00	94.145
462.00	96.977
463.00	94.538
464.00	93.613
465.00	94.826
466.00	94.551
467.00	93.138
468.00	93.841
469.00	96.811
470.00	94.452
471.00	93.873
472.00	93.960
473.00	93.048
474.00	94.079
475.00	91.248
476.00	95.209
477.00	92.230
478.00	95.117
479.00	93.912
480.00	91.911
481.00	93.376
482.00	93.642
483.00	96.063
484.00	92.930
485.00	94.453
486.00	94.725
487.00	93.194
488.00	95.390
489.00	96.020
490.00	95.221
491.00	93.896
492.00	94.934
493.00	95.434
494.00	94.122
495.00	94.645
496.00	94.311
497.00	93.737
498.00	94.321
499.00	94.249
500.00	93.769
501.00	94.375
502.00	94.620
503.00	94.274
504.00	94.348
505.00	94.845
506.00	93.889
507.00	94.137
508.00	94.594
509.00	94.496
510.00	93.711
511.00	94.333
512.00	93.362
513.00	94.290
514.00	93.850
515.00	94.909
516.00	93.819
517.00	94.148
518.00	93.757
519.00	94.061
520.00	94.239
521.00	94.365
522.00	93.808
523.00	93.958
524.00	94.116
525.00	94.647
526.00	94.185
527.00	93.865
528.00	93.967
529.00	93.395
530.00	93.924
531.00	93.761
532.00	93.462
533.00	93.448
534.00	93.536
535.00	93.847
536.00	93.612
537.00	93.106
538.00	93.465
539.00	93.368
540.00	93.630
541.00	93.976
542.00	93.481
543.00	93.444
544.00	93.398
545.00	93.492
546.00	93.962
547.00	93.832
548.00	93.494
549.00	94.298
550.00	93.887
551.00	93.458
552.00	93.537
553.00	93.651
554.00	93.442
555.00	93.090
556.00	93.792
557.00	93.198
558.00	93.265
559.00	93.434
560.00	93.047
561.00	93.428
562.00	93.046
563.00	93.321
564.00	93.061
565.00	93.396
566.00	93.913
567.00	93.528
568.00	94.375
569.00	93.891
570.00	92.984
571.00	93.125
572.00	93.519
573.00	93.409
574.00	93.005
575.00	93.609
576.00	93.731
577.00	93.773
578.00	93.797
579.00	93.649
580.00	93.215
581.00	93.540
582.00	93.478
583.00	94.072
584.00	92.956
585.00	92.896
586.00	92.831
587.00	92.945
588.00	93.046
589.00	93.081
590.00	93.146
591.00	92.825
592.00	93.402
593.00	92.871
594.00	93.514
595.00	92.938
596.00	93.568
597.00	92.999
598.00	92.929
599.00	93.176
600.00	92.862
601.00	93.147
602.00	93.522
603.00	93.494
604.00	93.421
605.00	93.417
606.00	92.846
607.00	92.793
608.00	93.149
609.00	92.977
610.00	93.369
611.00	92.899
612.00	93.151
613.00	92.837
614.00	93.079
615.00	92.602
616.00	92.889
617.00	92.915
618.00	92.709
619.00	92.604
620.00	92.742
621.00	92.339
622.00	92.576
623.00	92.977
624.00	92.769
625.00	93.105
626.00	93.261
627.00	93.058
628.00	92.694
629.00	92.897
630.00	93.145
631.00	92.547
632.00	92.793
633.00	93.072
634.00	93.068
635.00	92.908
636.00	93.410
637.00	93.207
638.00	93.501
639.00	93.255
640.00	93.251
641.00	93.554
642.00	93.376
643.00	93.018
644.00	93.365
645.00	93.242
646.00	93.348
647.00	93.795
648.00	93.385
649.00	93.102
650.00	93.636
651.00	93.616
652.00	93.611
653.00	93.553
654.00	93.454
655.00	93.200
656.00	93.264
657.00	94.109
658.00	93.516
659.00	93.272
660.00	93.643
661.00	93.292
662.00	93.503
663.00	93.516
664.00	93.716
665.00	93.742
666.00	93.628
667.00	94.050
668.00	93.736
669.00	93.755
670.00	94.140
671.00	94.224
672.00	93.401
673.00	94.236
674.00	94.548
675.00	94.486
676.00	94.445
677.00	93.883
678.00	94.019
679.00	94.323
680.00	94.136
681.00	93.774
682.00	94.198
683.00	94.100
684.00	94.097
685.00	93.821
686.00	94.038
687.00	93.713
688.00	94.475
689.00	93.367
690.00	93.818
691.00	93.250
692.00	94.200
693.00	93.485
694.00	93.518
695.00	93.779
696.00	93.452
697.00	93.640
698.00	92.685
699.00	93.637
700.00	93.122
701.00	93.513
702.00	93.136
703.00	93.342
704.00	92.675
705.00	92.488
706.00	93.073
707.00	92.751
708.00	92.311
709.00	92.507
710.00	92.313
711.00	92.737
712.00	91.728
713.00	92.362
714.00	92.622
715.00	91.776
716.00	93.015
717.00	92.066
718.00	92.239
719.00	91.728
720.00	91.615
721.00	91.581
722.00	91.925
723.00	91.532
724.00	90.969
725.00	90.783
726.00	90.820
727.00	91.012
728.00	90.661
729.00	91.164
730.00	90.591
731.00	91.302
732.00	91.046
733.00	90.862
734.00	90.416
735.00	90.005
736.00	90.091
737.00	90.125
738.00	90.218
739.00	89.908
740.00	89.643
741.00	89.482
742.00	89.116
743.00	90.118
744.00	89.298
745.00	89.223
746.00	88.984
747.00	88.527
748.00	90.038
749.00	88.804
750.00	88.470
751.00	88.570
752.00	88.194
753.00	88.368
754.00	88.357
755.00	89.036
756.00	88.524
757.00	87.879
758.00	88.200
759.00	87.300
760.00	87.406
761.00	87.319
762.00	87.530
763.00	86.926
764.00	87.165
765.00	87.191
766.00	87.540
767.00	86.559
768.00	86.252
769.00	86.006
770.00	86.326
771.00	86.541
772.00	86.329
773.00	85.795
774.00	86.312
775.00	85.439
776.00	85.327
777.00	84.840
778.00	84.861
779.00	84.749
780.00	84.623
781.00	84.438
782.00	83.891
783.00	84.080
784.00	84.189
785.00	83.629
786.00	83.787
787.00	84.089
788.00	83.075
789.00	83.070
790.00	83.595
791.00	82.454
792.00	81.941
793.00	83.681
794.00	82.179
795.00	81.888
796.00	81.713
797.00	81.947
798.00	81.390
799.00	80.713
800.00	81.047
801.00	80.586
802.00	80.168
803.00	79.629
804.00	80.156
805.00	80.268
806.00	79.880
807.00	79.908
808.00	79.308
809.00	78.531
810.00	78.963
811.00	78.643
812.00	78.997
813.00	77.203
814.00	76.948
815.00	77.876
816.00	77.287
817.00	76.621
818.00	77.112
819.00	76.595
820.00	77.443
821.00	76.393
822.00	77.341
823.00	76.972
824.00	76.722
825.00	75.808
826.00	74.889
827.00	73.768
828.00	75.170
829.00	76.022
830.00	75.095
831.00	74.513
832.00	74.550
833.00	73.469
834.00	74.493
835.00	73.281
836.00	73.482
837.00	73.010
838.00	72.919
839.00	73.779
840.00	73.023
841.00	71.633
842.00	71.469
843.00	71.667
844.00	71.475
845.00	70.576
846.00	70.326
847.00	70.745
848.00	69.648
849.00	70.762
850.00	69.501
851.00	69.875
852.00	69.948
853.00	68.780
854.00	67.864
855.00	67.074
856.00	67.330
857.00	66.351
858.00	67.059
859.00	67.088
860.00	67.212
861.00	66.826
862.00	67.096
863.00	66.991
864.00	65.771
865.00	65.506
866.00	65.116
867.00	65.924
868.00	63.609
869.00	64.623
870.00	63.908
871.00	63.826
872.00	62.486
873.00	64.194
874.00	63.414
875.00	63.088
876.00	61.738
877.00	61.145
878.00	61.960
879.00	61.669
880.00	60.464
881.00	60.235
882.00	61.540
883.00	60.164
884.00	59.084
885.00	60.197
886.00	60.391
887.00	59.404
888.00	58.848
889.00	58.331
890.00	59.866
891.00	57.677
892.00	57.881
893.00	56.780
894.00	58.945
895.00	58.152
896.00	54.998
897.00	56.195
898.00	57.475
899.00	56.738
900.00	55.329
901.00	56.061
902.00	55.936
903.00	57.596
904.00	55.889
905.00	56.456
906.00	56.486
907.00	54.461
908.00	56.070
909.00	55.174
910.00	55.162
911.00	56.434
912.00	55.717
913.00	56.598
914.00	56.178
915.00	54.454
916.00	55.850
917.00	56.190
918.00	55.028
919.00	55.422
920.00	56.198
921.00	57.982
922.00	60.666
923.00	58.083
924.00	59.463
925.00	59.926
926.00	58.064
927.00	57.974
928.00	59.259
929.00	62.534
930.00	58.998
931.00	61.506
932.00	61.302
933.00	60.125
934.00	61.873
935.00	63.925
936.00	63.952
937.00	60.429
938.00	63.357
939.00	62.813
940.00	64.785
941.00	65.137
942.00	65.581
943.00	62.437
944.00	66.280
945.00	65.375
946.00	68.721
947.00	70.880
948.00	67.279
949.00	62.467
950.00	71.040
951.00	66.823
952.00	68.831
953.00	69.664
954.00	61.817
955.00	67.904
956.00	72.522
957.00	73.131
958.00	68.097
959.00	70.184
960.00	74.416
961.00	74.293
962.00	73.702
963.00	69.806
964.00	78.773
965.00	73.727
966.00	61.358
967.00	74.888
968.00	78.820
969.00	68.896
970.00	80.068
971.00	69.822
972.00	73.977
973.00	88.854
974.00	78.183
975.00	74.727
976.00	78.915
977.00	88.397
978.00	77.677
979.00	71.241
980.00	78.134
981.00	80.329
982.00	72.375
983.00	76.664
984.00	69.301
985.00	73.725
986.00	63.966
987.00	75.929
988.00	75.573
989.00	88.237
990.00	66.862
991.00	76.112
992.00	83.745
993.00	93.597
994.00	84.187
995.00	84.471
996.00	81.777
997.00	95.399
998.00	91.959
999.00	85.044
1000.00	87.463
>>>>>End Processed Spectral Data<<<<<
