SpectraSuite Data File
++++++++++++++++++++++++++++++++++++
Date: Thu Nov 20 12:05:40 CET 2014
User: admin
Spectrometer Serial Number: USB2G49547
Spectrometer Channel: 0
Integration Time (usec): 300000
Spectra Averaged: 8
Boxcar Smoothing: 0
Correct for Electrical Dark: No
Strobe/Lamp Enabled: No
Correct for Detector Non-linearity: No
Correct for Stray Light: No
Number of Pixels in Spectrum: 651
>>>>>Begin Spectral Data<<<<<
350.00	219.005
351.00	219.124
352.00	220.326
353.00	219.365
354.00	218.283
355.00	218.507
356.00	220.889
357.00	218.251
358.00	219.050
359.00	219.774
360.00	219.823
361.00	220.898
362.00	219.586
363.00	220.094
364.00	219.413
365.00	218.434
366.00	221.155
367.00	220.731
368.00	219.694
369.00	221.811
370.00	223.845
371.00	222.015
372.00	223.881
373.00	222.446
374.00	221.236
375.00	222.089
376.00	223.394
377.00	220.248
378.00	221.250
379.00	222.201
380.00	223.862
381.00	222.337
382.00	222.011
383.00	219.382
384.00	220.764
385.00	228.459
386.00	225.606
387.00	222.699
388.00	224.736
389.00	224.316
390.00	221.235
391.00	221.376
392.00	222.230
393.00	223.638
394.00	225.229
395.00	221.521
396.00	223.233
397.00	224.802
398.00	226.998
399.00	227.997
400.00	226.221
401.00	225.697
402.00	226.124
403.00	230.445
404.00	225.408
405.00	227.679
406.00	227.793
407.00	223.943
408.00	237.378
409.00	227.471
410.00	230.644
411.00	227.500
412.00	227.302
413.00	228.998
414.00	229.494
415.00	230.121
416.00	231.817
417.00	235.440
418.00	231.896
419.00	234.084
420.00	232.000
421.00	233.490
422.00	233.165
423.00	229.418
424.00	235.074
425.00	236.535
426.00	235.302
427.00	244.459
428.00	241.210
429.00	239.872
430.00	241.673
431.00	241.698
432.00	243.888
433.00	245.428
434.00	246.389
435.00	250.811
436.00	246.986
437.00	253.658
438.00	252.272
439.00	253.524
440.00	258.383
441.00	256.150
442.00	256.475
443.00	258.614
444.00	293.488
445.00	267.135
446.00	261.794
447.00	265.427
448.00	264.358
449.00	264.983
450.00	270.795
451.00	274.519
452.00	280.393
453.00	276.012
454.00	279.437
455.00	279.877
456.00	291.271
457.00	290.898
458.00	295.339
459.00	292.407
460.00	297.360
461.00	300.605
462.00	301.647
463.00	309.723
464.00	313.732
465.00	317.045
466.00	322.613
467.00	328.104
468.00	334.599
469.00	350.668
470.00	348.755
471.00	358.044
472.00	361.790
473.00	373.163
474.00	377.074
475.00	395.403
476.00	404.543
477.00	419.204
478.00	438.141
479.00	448.055
480.00	463.768
481.00	482.261
482.00	496.295
483.00	519.402
484.00	539.937
485.00	549.942
486.00	571.509
487.00	586.495
488.00	612.114
489.00	638.278
490.00	656.301
491.00	694.303
492.00	719.941
493.00	740.795
494.00	768.349
495.00	806.472
496.00	816.432
497.00	860.126
498.00	856.101
499.00	897.045
500.00	927.823
501.00	940.456
502.00	979.151
503.00	1053.495
504.00	1100.111
505.00	1109.562
506.00	1142.431
507.00	1170.941
508.00	1187.248
509.00	1215.905
510.00	1257.164
511.00	1296.215
512.00	1304.344
513.00	1331.925
514.00	1351.698
515.00	1373.465
516.00	1429.885
517.00	1438.323
518.00	1490.368
519.00	1518.247
520.00	1571.536
521.00	1620.354
522.00	1628.968
523.00	1646.316
524.00	1667.392
525.00	1709.864
526.00	1747.606
527.00	1828.556
528.00	1846.202
529.00	1886.943
530.00	1883.030
531.00	1902.366
532.00	1959.502
533.00	1996.593
534.00	2015.587
535.00	2028.765
536.00	2054.471
537.00	2079.736
538.00	2106.058
539.00	2156.791
540.00	2207.850
541.00	2244.530
542.00	2253.867
543.00	2311.577
544.00	2321.704
545.00	2369.882
546.00	2327.374
547.00	2396.665
548.00	2401.674
549.00	2472.908
550.00	2485.944
551.00	2477.146
552.00	2516.308
553.00	2561.243
554.00	2563.422
555.00	2619.570
556.00	2605.237
557.00	2641.598
558.00	2609.363
559.00	2668.658
560.00	2691.462
561.00	2741.703
562.00	2725.091
563.00	2691.228
564.00	2747.441
565.00	2795.801
566.00	2778.713
567.00	2849.375
568.00	2805.533
569.00	2838.625
570.00	2902.817
571.00	2884.483
572.00	2907.131
573.00	2938.894
574.00	2932.017
575.00	2964.813
576.00	2937.459
577.00	2969.255
578.00	3021.049
579.00	2998.189
580.00	3088.936
581.00	3079.354
582.00	3141.123
583.00	3111.170
584.00	3126.186
585.00	3139.829
586.00	3137.169
587.00	3200.799
588.00	3205.272
589.00	3214.052
590.00	3308.873
591.00	3293.233
592.00	3228.169
593.00	3313.092
594.00	3307.347
595.00	3329.859
596.00	3293.649
597.00	3370.281
598.00	3364.000
599.00	3367.275
600.00	3431.926
601.00	3455.592
602.00	3513.495
603.00	3424.335
604.00	3490.132
605.00	3490.318
606.00	3546.679
607.00	3567.557
608.00	3536.353
609.00	3530.927
610.00	3529.339
611.00	3543.114
612.00	3559.076
613.00	3608.330
614.00	3611.075
615.00	3609.514
616.00	3612.389
617.00	3610.709
618.00	3558.064
619.00	3565.630
620.00	3629.583
621.00	3613.823
622.00	3581.446
623.00	3635.623
624.00	3648.340
625.00	3686.121
626.00	3691.714
627.00	3736.379
628.00	3721.357
629.00	3712.109
630.00	3651.808
631.00	3657.271
632.00	3658.878
633.00	3637.279
634.00	3726.223
635.00	3713.572
636.00	3722.584
637.00	3698.770
638.00	3665.559
639.00	3735.804
640.00	3725.086
641.00	3766.336
642.00	3761.802
643.00	3754.707
644.00	3774.949
645.00	3698.147
646.00	3797.194
647.00	3706.690
648.00	3750.106
649.00	3739.494
650.00	3726.002
651.00	3796.518
652.00	3736.339
653.00	3776.731
654.00	3764.032
655.00	3806.141
656.00	3782.228
657.00	3788.060
658.00	3793.058
659.00	3732.748
660.00	3780.252
661.00	3656.810
662.00	3657.555
663.00	3681.997
664.00	3713.922
665.00	3728.736
666.00	3651.252
667.00	3697.109
668.00	3573.184
669.00	3631.136
670.00	3639.901
671.00	3708.414
672.00	3597.355
673.00	3584.365
674.00	3635.302
675.00	3619.372
676.00	3609.278
677.00	3567.337
678.00	3480.963
679.00	3500.436
680.00	3494.803
681.00	3468.661
682.00	3488.618
683.00	3435.157
684.00	3449.278
685.00	3526.391
686.00	3401.845
687.00	3439.846
688.00	3359.243
689.00	3348.119
690.00	3293.967
691.00	3288.411
692.00	3241.010
693.00	3273.869
694.00	3272.466
695.00	3259.394
696.00	3231.777
697.00	3207.120
698.00	3205.108
699.00	3194.827
700.00	3157.736
701.00	3112.559
702.00	3067.158
703.00	3062.019
704.00	3087.745
705.00	3076.847
706.00	2981.961
707.00	2968.599
708.00	2982.639
709.00	2942.776
710.00	2932.803
711.00	2936.947
712.00	2939.294
713.00	2923.435
714.00	2901.628
715.00	2827.483
716.00	2814.829
717.00	2791.037
718.00	2773.086
719.00	2764.166
720.00	2730.970
721.00	2794.896
722.00	2710.350
723.00	2717.651
724.00	2697.873
725.00	2655.800
726.00	2613.514
727.00	2647.306
728.00	2621.423
729.00	2629.382
730.00	2542.790
731.00	2501.372
732.00	2537.454
733.00	2495.685
734.00	2538.657
735.00	2468.204
736.00	2450.471
737.00	2373.684
738.00	2390.446
739.00	2397.905
740.00	2339.172
741.00	2358.182
742.00	2347.367
743.00	2272.453
744.00	2252.879
745.00	2279.924
746.00	2242.733
747.00	2197.620
748.00	2186.041
749.00	2123.739
750.00	2104.598
751.00	2113.855
752.00	2063.343
753.00	2068.207
754.00	1982.282
755.00	2001.037
756.00	1952.334
757.00	1936.790
758.00	1943.950
759.00	1934.485
760.00	1897.190
761.00	1937.123
762.00	1891.692
763.00	1880.507
764.00	1812.229
765.00	1767.631
766.00	1766.431
767.00	1756.116
768.00	1717.201
769.00	1652.787
770.00	1668.051
771.00	1629.988
772.00	1636.088
773.00	1626.731
774.00	1573.354
775.00	1566.726
776.00	1564.125
777.00	1536.309
778.00	1506.243
779.00	1514.795
780.00	1492.704
781.00	1487.069
782.00	1503.783
783.00	1473.964
784.00	1466.336
785.00	1422.400
786.00	1453.932
787.00	1459.169
788.00	1383.431
789.00	1420.287
790.00	1458.091
791.00	1408.029
792.00	1377.518
793.00	1378.485
794.00	1408.796
795.00	1408.728
796.00	1377.277
797.00	1374.360
798.00	1313.709
799.00	1328.873
800.00	1348.404
801.00	1323.152
802.00	1293.081
803.00	1291.429
804.00	1287.092
805.00	1241.857
806.00	1211.706
807.00	1189.266
808.00	1156.707
809.00	1153.844
810.00	1129.303
811.00	1110.765
812.00	1130.384
813.00	1099.959
814.00	1100.568
815.00	1061.737
816.00	1058.502
817.00	1042.064
818.00	1033.872
819.00	1004.591
820.00	1022.737
821.00	999.643
822.00	994.747
823.00	977.331
824.00	965.671
825.00	932.960
826.00	915.543
827.00	924.261
828.00	909.063
829.00	912.615
830.00	892.365
831.00	861.865
832.00	843.448
833.00	833.539
834.00	824.728
835.00	813.884
836.00	807.780
837.00	791.655
838.00	789.836
839.00	766.937
840.00	757.745
841.00	745.007
842.00	739.282
843.00	728.120
844.00	719.266
845.00	717.195
846.00	700.908
847.00	699.504
848.00	701.057
849.00	674.810
850.00	679.164
851.00	665.188
852.00	645.656
853.00	639.940
854.00	620.696
855.00	620.277
856.00	620.266
857.00	615.772
858.00	620.861
859.00	613.463
860.00	608.028
861.00	611.253
862.00	599.372
863.00	593.276
864.00	575.664
865.00	569.267
866.00	571.351
867.00	558.848
868.00	550.430
869.00	553.544
870.00	531.074
871.00	534.000
872.00	538.256
873.00	532.096
874.00	521.376
875.00	508.254
876.00	500.510
877.00	500.213
878.00	491.922
879.00	495.098
880.00	482.927
881.00	469.752
882.00	475.005
883.00	467.034
884.00	468.635
885.00	464.947
886.00	463.502
887.00	464.976
888.00	455.638
889.00	460.365
890.00	450.308
891.00	449.039
892.00	450.655
893.00	441.981
894.00	448.935
895.00	451.651
896.00	440.409
897.00	439.874
898.00	441.536
899.00	437.447
900.00	432.745
901.00	426.936
902.00	419.145
903.00	413.768
904.00	415.534
905.00	420.248
906.00	412.906
907.00	409.232
908.00	414.723
909.00	403.226
910.00	399.149
911.00	391.980
912.00	386.201
913.00	385.321
914.00	382.277
915.00	374.341
916.00	375.215
917.00	374.214
918.00	365.201
919.00	358.895
920.00	352.305
921.00	351.940
922.00	359.833
923.00	348.178
924.00	337.148
925.00	334.341
926.00	326.878
927.00	329.917
928.00	328.061
929.00	320.711
930.00	321.015
931.00	319.640
932.00	313.914
933.00	310.686
934.00	311.058
935.00	313.536
936.00	303.012
937.00	303.772
938.00	295.855
939.00	296.086
940.00	297.235
941.00	288.739
942.00	292.839
943.00	285.594
944.00	286.388
945.00	286.497
946.00	282.318
947.00	278.092
948.00	275.284
949.00	277.104
950.00	277.057
951.00	276.630
952.00	272.093
953.00	267.698
954.00	271.403
955.00	268.600
956.00	266.785
957.00	265.654
958.00	266.569
959.00	264.448
960.00	262.992
961.00	261.675
962.00	256.650
963.00	270.469
964.00	257.186
965.00	261.441
966.00	251.450
967.00	249.007
968.00	251.967
969.00	249.964
970.00	248.427
971.00	247.882
972.00	246.504
973.00	247.734
974.00	246.505
975.00	249.258
976.00	243.247
977.00	242.672
978.00	242.582
979.00	242.128
980.00	250.558
981.00	236.410
982.00	239.350
983.00	236.296
984.00	238.773
985.00	237.774
986.00	235.760
987.00	239.646
988.00	233.959
989.00	232.940
990.00	233.628
991.00	232.093
992.00	232.934
993.00	233.474
994.00	232.499
995.00	233.828
996.00	230.568
997.00	229.587
998.00	229.513
999.00	228.673
1000.00	229.935
>>>>>End Spectral Data<<<<<
