SpectraSuite Data File
++++++++++++++++++++++++++++++++++++
Date: Thu Nov 20 12:07:45 CET 2014
User: admin
Spectrometer Serial Number: USB2G49547
Spectrometer Channel: 0
Integration Time (usec): 300000
Spectra Averaged: 8
Boxcar Smoothing: 0
Correct for Electrical Dark: No
Strobe/Lamp Enabled: No
Correct for Detector Non-linearity: No
Correct for Stray Light: No
Number of Pixels in Spectrum: 651
>>>>>Begin Spectral Data<<<<<
350.00	217.618
351.00	220.044
352.00	219.500
353.00	219.391
354.00	218.192
355.00	219.135
356.00	220.878
357.00	218.673
358.00	219.191
359.00	219.261
360.00	218.161
361.00	221.318
362.00	217.949
363.00	220.152
364.00	218.962
365.00	218.565
366.00	221.437
367.00	219.996
368.00	220.808
369.00	219.913
370.00	222.266
371.00	223.532
372.00	224.131
373.00	221.819
374.00	221.623
375.00	220.175
376.00	222.309
377.00	218.550
378.00	221.514
379.00	221.294
380.00	223.238
381.00	221.779
382.00	221.117
383.00	218.451
384.00	222.172
385.00	228.638
386.00	223.062
387.00	223.003
388.00	223.866
389.00	224.411
390.00	221.964
391.00	220.686
392.00	222.022
393.00	221.136
394.00	225.399
395.00	221.459
396.00	224.825
397.00	224.477
398.00	226.169
399.00	228.156
400.00	224.011
401.00	225.698
402.00	226.401
403.00	229.839
404.00	224.421
405.00	222.772
406.00	227.522
407.00	223.663
408.00	239.258
409.00	227.288
410.00	226.595
411.00	226.730
412.00	227.078
413.00	228.242
414.00	229.478
415.00	230.920
416.00	230.030
417.00	237.141
418.00	232.364
419.00	233.195
420.00	231.986
421.00	232.697
422.00	231.426
423.00	233.952
424.00	234.027
425.00	233.150
426.00	234.651
427.00	243.828
428.00	238.768
429.00	237.020
430.00	239.862
431.00	240.234
432.00	244.251
433.00	245.039
434.00	242.890
435.00	250.299
436.00	246.043
437.00	250.825
438.00	251.311
439.00	252.735
440.00	255.756
441.00	251.206
442.00	257.138
443.00	256.627
444.00	293.864
445.00	267.470
446.00	261.948
447.00	263.093
448.00	261.246
449.00	265.292
450.00	269.967
451.00	272.087
452.00	277.368
453.00	275.734
454.00	278.035
455.00	280.786
456.00	288.290
457.00	286.362
458.00	292.325
459.00	291.461
460.00	295.215
461.00	301.881
462.00	299.706
463.00	305.547
464.00	309.180
465.00	315.453
466.00	318.438
467.00	323.903
468.00	330.334
469.00	347.642
470.00	346.361
471.00	352.960
472.00	357.407
473.00	367.469
474.00	371.936
475.00	388.696
476.00	399.660
477.00	413.423
478.00	433.910
479.00	441.122
480.00	460.240
481.00	477.109
482.00	490.694
483.00	511.846
484.00	530.606
485.00	535.812
486.00	560.540
487.00	576.528
488.00	601.382
489.00	625.087
490.00	649.267
491.00	679.050
492.00	701.814
493.00	721.570
494.00	752.732
495.00	791.628
496.00	808.939
497.00	844.970
498.00	833.745
499.00	880.192
500.00	911.785
501.00	928.634
502.00	961.953
503.00	1033.631
504.00	1086.194
505.00	1097.419
506.00	1113.316
507.00	1149.902
508.00	1163.727
509.00	1182.902
510.00	1224.278
511.00	1275.996
512.00	1273.457
513.00	1315.617
514.00	1332.441
515.00	1360.752
516.00	1404.115
517.00	1421.761
518.00	1478.641
519.00	1505.887
520.00	1519.415
521.00	1563.412
522.00	1608.506
523.00	1608.754
524.00	1643.612
525.00	1687.016
526.00	1715.628
527.00	1777.846
528.00	1793.901
529.00	1839.537
530.00	1834.208
531.00	1860.099
532.00	1915.185
533.00	1934.462
534.00	1971.778
535.00	1995.090
536.00	2025.671
537.00	2039.108
538.00	2064.599
539.00	2094.903
540.00	2159.102
541.00	2184.387
542.00	2206.612
543.00	2250.482
544.00	2290.554
545.00	2336.616
546.00	2287.468
547.00	2358.734
548.00	2345.727
549.00	2412.715
550.00	2414.839
551.00	2406.400
552.00	2451.623
553.00	2470.826
554.00	2491.993
555.00	2586.754
556.00	2559.492
557.00	2595.470
558.00	2564.720
559.00	2615.709
560.00	2650.471
561.00	2664.974
562.00	2693.950
563.00	2646.863
564.00	2694.997
565.00	2726.419
566.00	2730.064
567.00	2765.532
568.00	2748.889
569.00	2761.247
570.00	2821.721
571.00	2831.155
572.00	2848.888
573.00	2896.076
574.00	2878.852
575.00	2905.203
576.00	2882.663
577.00	2912.189
578.00	2953.668
579.00	2966.023
580.00	3026.003
581.00	2967.062
582.00	3064.536
583.00	3033.984
584.00	3034.226
585.00	3074.020
586.00	3077.962
587.00	3136.810
588.00	3110.574
589.00	3133.635
590.00	3194.748
591.00	3202.253
592.00	3186.376
593.00	3238.206
594.00	3265.478
595.00	3271.314
596.00	3243.340
597.00	3289.637
598.00	3261.303
599.00	3322.603
600.00	3342.097
601.00	3398.672
602.00	3448.476
603.00	3323.232
604.00	3435.155
605.00	3422.605
606.00	3455.027
607.00	3470.645
608.00	3477.980
609.00	3457.300
610.00	3478.444
611.00	3458.980
612.00	3479.728
613.00	3532.910
614.00	3534.584
615.00	3538.071
616.00	3532.837
617.00	3571.177
618.00	3489.659
619.00	3519.728
620.00	3559.192
621.00	3552.601
622.00	3525.116
623.00	3537.898
624.00	3596.267
625.00	3607.465
626.00	3598.646
627.00	3647.525
628.00	3589.159
629.00	3624.046
630.00	3614.109
631.00	3642.952
632.00	3635.339
633.00	3581.780
634.00	3642.179
635.00	3631.396
636.00	3671.814
637.00	3644.592
638.00	3606.102
639.00	3652.511
640.00	3639.801
641.00	3663.159
642.00	3678.035
643.00	3674.362
644.00	3738.414
645.00	3648.597
646.00	3728.469
647.00	3655.034
648.00	3700.100
649.00	3684.193
650.00	3697.464
651.00	3762.802
652.00	3658.939
653.00	3718.143
654.00	3732.808
655.00	3731.298
656.00	3701.369
657.00	3699.181
658.00	3706.466
659.00	3690.763
660.00	3714.971
661.00	3603.913
662.00	3650.829
663.00	3630.241
664.00	3645.402
665.00	3731.407
666.00	3608.808
667.00	3647.311
668.00	3519.673
669.00	3560.173
670.00	3610.929
671.00	3652.668
672.00	3541.012
673.00	3513.955
674.00	3554.900
675.00	3558.009
676.00	3525.722
677.00	3533.816
678.00	3450.212
679.00	3490.419
680.00	3446.704
681.00	3427.839
682.00	3429.633
683.00	3340.437
684.00	3359.540
685.00	3429.128
686.00	3339.748
687.00	3370.700
688.00	3306.882
689.00	3270.687
690.00	3269.243
691.00	3251.985
692.00	3231.848
693.00	3266.750
694.00	3217.291
695.00	3268.619
696.00	3205.479
697.00	3208.869
698.00	3139.604
699.00	3146.802
700.00	3081.824
701.00	3073.851
702.00	3011.233
703.00	3010.797
704.00	3023.988
705.00	3004.768
706.00	2913.405
707.00	2906.490
708.00	2941.231
709.00	2897.554
710.00	2899.000
711.00	2869.401
712.00	2883.380
713.00	2896.212
714.00	2826.715
715.00	2784.489
716.00	2774.303
717.00	2753.220
718.00	2747.628
719.00	2727.500
720.00	2709.535
721.00	2810.670
722.00	2719.381
723.00	2680.523
724.00	2674.290
725.00	2638.564
726.00	2616.688
727.00	2627.455
728.00	2598.729
729.00	2578.774
730.00	2505.861
731.00	2452.746
732.00	2486.606
733.00	2485.737
734.00	2477.909
735.00	2417.087
736.00	2423.612
737.00	2319.450
738.00	2354.919
739.00	2369.545
740.00	2342.604
741.00	2344.377
742.00	2331.879
743.00	2267.417
744.00	2233.591
745.00	2277.225
746.00	2226.912
747.00	2180.967
748.00	2156.671
749.00	2108.055
750.00	2091.488
751.00	2118.526
752.00	2047.434
753.00	2055.663
754.00	1986.908
755.00	2004.608
756.00	1950.110
757.00	1931.242
758.00	1945.332
759.00	1925.079
760.00	1897.498
761.00	1919.463
762.00	1876.319
763.00	1867.615
764.00	1816.412
765.00	1759.285
766.00	1747.602
767.00	1744.844
768.00	1718.045
769.00	1625.841
770.00	1641.218
771.00	1629.755
772.00	1636.272
773.00	1605.545
774.00	1573.211
775.00	1540.877
776.00	1533.015
777.00	1520.198
778.00	1510.024
779.00	1519.154
780.00	1484.937
781.00	1485.799
782.00	1503.056
783.00	1458.858
784.00	1451.095
785.00	1400.785
786.00	1420.143
787.00	1431.189
788.00	1384.823
789.00	1382.663
790.00	1431.535
791.00	1398.780
792.00	1380.083
793.00	1386.166
794.00	1396.134
795.00	1418.367
796.00	1362.725
797.00	1360.161
798.00	1310.013
799.00	1333.864
800.00	1332.178
801.00	1318.162
802.00	1300.785
803.00	1281.143
804.00	1270.196
805.00	1217.350
806.00	1208.591
807.00	1178.735
808.00	1153.647
809.00	1149.864
810.00	1108.231
811.00	1098.465
812.00	1093.171
813.00	1087.665
814.00	1099.025
815.00	1044.131
816.00	1054.121
817.00	1046.002
818.00	1038.091
819.00	1007.106
820.00	1008.731
821.00	1005.134
822.00	985.340
823.00	972.659
824.00	956.137
825.00	927.846
826.00	904.262
827.00	914.545
828.00	914.059
829.00	903.122
830.00	885.283
831.00	856.850
832.00	836.588
833.00	819.839
834.00	834.496
835.00	810.584
836.00	811.522
837.00	799.991
838.00	791.221
839.00	781.277
840.00	756.055
841.00	742.238
842.00	730.921
843.00	722.059
844.00	716.130
845.00	712.866
846.00	706.792
847.00	699.489
848.00	690.603
849.00	674.916
850.00	670.743
851.00	662.084
852.00	646.448
853.00	644.482
854.00	631.681
855.00	622.143
856.00	616.532
857.00	616.351
858.00	622.684
859.00	609.087
860.00	605.141
861.00	601.823
862.00	592.999
863.00	587.122
864.00	570.857
865.00	560.546
866.00	568.260
867.00	556.356
868.00	541.491
869.00	550.022
870.00	529.972
871.00	533.350
872.00	529.316
873.00	529.962
874.00	519.047
875.00	507.233
876.00	497.132
877.00	494.680
878.00	489.827
879.00	492.964
880.00	477.112
881.00	475.673
882.00	476.490
883.00	461.990
884.00	467.615
885.00	465.442
886.00	461.353
887.00	467.131
888.00	453.800
889.00	459.217
890.00	453.136
891.00	450.528
892.00	448.469
893.00	444.750
894.00	443.288
895.00	451.327
896.00	437.874
897.00	436.096
898.00	442.033
899.00	437.772
900.00	434.481
901.00	430.655
902.00	420.118
903.00	410.270
904.00	416.760
905.00	417.599
906.00	411.069
907.00	414.256
908.00	415.517
909.00	405.300
910.00	403.303
911.00	389.644
912.00	388.011
913.00	382.150
914.00	386.057
915.00	370.267
916.00	373.604
917.00	376.702
918.00	368.576
919.00	358.124
920.00	350.125
921.00	348.671
922.00	356.796
923.00	345.978
924.00	335.059
925.00	333.892
926.00	328.416
927.00	329.739
928.00	327.023
929.00	318.193
930.00	321.329
931.00	315.656
932.00	313.847
933.00	310.888
934.00	311.312
935.00	311.584
936.00	305.057
937.00	304.540
938.00	300.263
939.00	298.946
940.00	297.333
941.00	290.624
942.00	290.473
943.00	290.109
944.00	285.668
945.00	283.455
946.00	279.092
947.00	278.740
948.00	274.394
949.00	278.883
950.00	274.452
951.00	274.255
952.00	272.693
953.00	271.856
954.00	268.644
955.00	267.652
956.00	266.133
957.00	266.011
958.00	264.102
959.00	263.710
960.00	262.273
961.00	256.754
962.00	256.651
963.00	269.797
964.00	254.683
965.00	258.906
966.00	255.145
967.00	252.218
968.00	250.957
969.00	248.330
970.00	248.492
971.00	249.613
972.00	246.821
973.00	249.124
974.00	244.442
975.00	245.104
976.00	243.775
977.00	242.075
978.00	240.916
979.00	239.516
980.00	248.955
981.00	236.144
982.00	240.187
983.00	237.611
984.00	237.350
985.00	236.257
986.00	236.895
987.00	238.221
988.00	234.205
989.00	232.059
990.00	234.386
991.00	232.151
992.00	233.994
993.00	234.986
994.00	230.023
995.00	232.620
996.00	230.082
997.00	228.935
998.00	230.249
999.00	228.494
1000.00	230.212
>>>>>End Spectral Data<<<<<
