SpectraSuite Data File
++++++++++++++++++++++++++++++++++++
Date: Thu Nov 20 12:07:57 CET 2014
User: admin
Dark Spectrum Present: Yes
Reference Spectrum Present: Yes
Number of Sampled Component Spectra: 1
Spectrometers: USB2G49547
Integration Time (usec): 300000 (USB2G49547)
Spectra Averaged: 8 (USB2G49547)
Boxcar Smoothing: 0 (USB2G49547)
Correct for Electrical Dark: No (USB2G49547)
Strobe/Lamp Enabled: No (USB2G49547)
Correct for Detector Non-linearity: No (USB2G49547)
Correct for Stray Light: No (USB2G49547)
Number of Pixels in Processed Spectrum: 651
>>>>>Begin Processed Spectral Data<<<<<
350.00	131.337
351.00	103.774
352.00	123.608
353.00	103.715
354.00	147.289
355.00	70.067
356.00	96.642
357.00	61.503
358.00	94.781
359.00	109.139
360.00	129.072
361.00	97.349
362.00	116.415
363.00	95.699
364.00	194.335
365.00	118.028
366.00	75.962
367.00	61.224
368.00	117.617
369.00	76.897
370.00	83.778
371.00	72.974
372.00	97.722
373.00	91.908
374.00	99.190
375.00	136.560
376.00	110.679
377.00	140.275
378.00	69.320
379.00	30.257
380.00	45.317
381.00	49.414
382.00	158.367
383.00	159.592
384.00	89.173
385.00	84.325
386.00	115.722
387.00	110.568
388.00	94.751
389.00	86.392
390.00	94.387
391.00	109.941
392.00	108.315
393.00	129.834
394.00	93.965
395.00	120.648
396.00	107.823
397.00	112.357
398.00	111.843
399.00	73.283
400.00	119.098
401.00	90.542
402.00	112.649
403.00	91.653
404.00	68.499
405.00	119.952
406.00	93.080
407.00	114.645
408.00	81.846
409.00	77.702
410.00	125.251
411.00	111.262
412.00	98.591
413.00	91.333
414.00	113.287
415.00	91.550
416.00	121.852
417.00	97.753
418.00	100.814
419.00	102.352
420.00	92.684
421.00	105.716
422.00	95.069
423.00	93.199
424.00	102.376
425.00	108.503
426.00	110.852
427.00	86.966
428.00	101.998
429.00	114.079
430.00	96.578
431.00	98.069
432.00	93.876
433.00	97.034
434.00	99.430
435.00	97.647
436.00	99.522
437.00	96.644
438.00	96.952
439.00	91.322
440.00	97.871
441.00	108.648
442.00	90.208
443.00	98.609
444.00	89.059
445.00	86.926
446.00	95.976
447.00	100.129
448.00	105.319
449.00	96.109
450.00	94.550
451.00	95.622
452.00	99.422
453.00	97.866
454.00	96.890
455.00	92.383
456.00	97.462
457.00	98.212
458.00	98.338
459.00	96.178
460.00	95.817
461.00	90.869
462.00	99.051
463.00	95.187
464.00	96.985
465.00	96.672
466.00	96.212
467.00	96.323
468.00	94.089
469.00	98.619
470.00	96.008
471.00	97.091
472.00	97.049
473.00	97.561
474.00	97.680
475.00	97.155
476.00	97.770
477.00	96.396
478.00	96.350
479.00	99.233
480.00	96.885
481.00	96.588
482.00	96.747
483.00	97.890
484.00	97.244
485.00	98.366
486.00	96.974
487.00	97.454
488.00	97.253
489.00	98.594
490.00	96.876
491.00	97.572
492.00	97.918
493.00	97.236
494.00	97.747
495.00	97.300
496.00	97.099
497.00	97.960
498.00	98.229
499.00	98.371
500.00	97.215
501.00	97.587
502.00	97.575
503.00	97.095
504.00	96.717
505.00	97.065
506.00	98.051
507.00	98.129
508.00	96.649
509.00	97.407
510.00	98.074
511.00	97.712
512.00	98.492
513.00	98.103
514.00	97.650
515.00	98.192
516.00	97.881
517.00	97.653
518.00	97.832
519.00	97.907
520.00	98.724
521.00	98.181
522.00	97.459
523.00	98.204
524.00	98.137
525.00	98.105
526.00	98.937
527.00	97.987
528.00	97.832
529.00	97.768
530.00	98.925
531.00	98.121
532.00	98.528
533.00	98.243
534.00	98.779
535.00	97.989
536.00	98.178
537.00	98.478
538.00	98.317
539.00	98.843
540.00	98.617
541.00	98.551
542.00	97.764
543.00	98.369
544.00	98.271
545.00	97.775
546.00	98.294
547.00	98.561
548.00	98.673
549.00	98.282
550.00	98.555
551.00	98.135
552.00	98.455
553.00	98.557
554.00	98.479
555.00	98.038
556.00	98.376
557.00	98.196
558.00	98.158
559.00	98.153
560.00	98.244
561.00	97.993
562.00	98.156
563.00	98.605
564.00	98.268
565.00	97.967
566.00	98.608
567.00	98.748
568.00	97.967
569.00	98.431
570.00	98.149
571.00	98.018
572.00	97.911
573.00	97.973
574.00	98.027
575.00	98.797
576.00	97.679
577.00	97.961
578.00	97.885
579.00	98.256
580.00	97.956
581.00	98.588
582.00	97.914
583.00	97.881
584.00	97.627
585.00	97.456
586.00	97.947
587.00	98.296
588.00	97.961
589.00	98.093
590.00	97.556
591.00	97.493
592.00	97.529
593.00	98.049
594.00	98.242
595.00	97.978
596.00	97.545
597.00	97.657
598.00	97.983
599.00	97.531
600.00	97.727
601.00	97.810
602.00	97.628
603.00	97.513
604.00	97.324
605.00	97.724
606.00	97.848
607.00	97.491
608.00	97.261
609.00	97.644
610.00	97.644
611.00	98.101
612.00	97.947
613.00	97.609
614.00	97.289
615.00	97.308
616.00	97.229
617.00	97.058
618.00	97.324
619.00	97.294
620.00	97.310
621.00	97.097
622.00	97.238
623.00	96.680
624.00	96.695
625.00	97.152
626.00	96.843
627.00	96.683
628.00	96.715
629.00	97.335
630.00	96.913
631.00	97.164
632.00	96.978
633.00	96.603
634.00	96.612
635.00	96.548
636.00	96.336
637.00	96.835
638.00	96.616
639.00	96.808
640.00	96.589
641.00	96.628
642.00	96.452
643.00	96.580
644.00	96.666
645.00	96.687
646.00	96.608
647.00	95.821
648.00	96.610
649.00	96.210
650.00	96.411
651.00	96.108
652.00	95.857
653.00	95.988
654.00	95.997
655.00	95.721
656.00	95.572
657.00	95.770
658.00	95.474
659.00	95.670
660.00	95.504
661.00	95.641
662.00	95.679
663.00	95.261
664.00	95.210
665.00	95.624
666.00	95.663
667.00	95.255
668.00	95.186
669.00	95.570
670.00	94.828
671.00	94.839
672.00	94.788
673.00	94.568
674.00	94.899
675.00	94.108
676.00	94.498
677.00	94.385
678.00	93.633
679.00	94.259
680.00	94.159
681.00	94.373
682.00	94.172
683.00	94.439
684.00	94.016
685.00	93.194
686.00	93.533
687.00	93.246
688.00	93.736
689.00	93.502
690.00	93.345
691.00	93.659
692.00	92.800
693.00	93.374
694.00	92.980
695.00	92.992
696.00	92.897
697.00	92.728
698.00	93.049
699.00	93.056
700.00	92.800
701.00	92.229
702.00	92.164
703.00	92.277
704.00	92.057
705.00	92.447
706.00	92.057
707.00	91.964
708.00	92.235
709.00	91.351
710.00	91.212
711.00	91.631
712.00	91.393
713.00	91.161
714.00	90.976
715.00	91.035
716.00	90.660
717.00	90.589
718.00	90.027
719.00	90.835
720.00	90.549
721.00	89.917
722.00	89.902
723.00	90.146
724.00	89.943
725.00	89.476
726.00	89.342
727.00	89.703
728.00	89.082
729.00	89.186
730.00	89.150
731.00	88.379
732.00	88.522
733.00	87.953
734.00	88.061
735.00	88.731
736.00	88.452
737.00	87.637
738.00	87.877
739.00	87.621
740.00	86.046
741.00	86.904
742.00	86.926
743.00	86.424
744.00	86.916
745.00	86.506
746.00	86.190
747.00	86.266
748.00	85.246
749.00	85.666
750.00	86.644
751.00	85.644
752.00	84.838
753.00	84.555
754.00	84.917
755.00	84.749
756.00	84.754
757.00	83.884
758.00	83.312
759.00	83.329
760.00	83.034
761.00	83.142
762.00	83.504
763.00	83.356
764.00	83.423
765.00	83.044
766.00	82.517
767.00	81.901
768.00	81.687
769.00	82.475
770.00	81.442
771.00	81.788
772.00	81.132
773.00	81.850
774.00	81.067
775.00	80.337
776.00	80.267
777.00	80.144
778.00	79.659
779.00	79.888
780.00	79.970
781.00	78.824
782.00	78.678
783.00	79.118
784.00	79.188
785.00	78.778
786.00	79.144
787.00	78.158
788.00	77.762
789.00	78.915
790.00	77.720
791.00	77.803
792.00	77.332
793.00	77.360
794.00	77.653
795.00	76.242
796.00	77.280
797.00	76.206
798.00	76.820
799.00	76.325
800.00	75.471
801.00	75.481
802.00	75.616
803.00	75.445
804.00	76.510
805.00	75.311
806.00	74.714
807.00	75.167
808.00	74.527
809.00	74.191
810.00	74.168
811.00	75.578
812.00	74.992
813.00	75.173
814.00	73.819
815.00	75.446
816.00	75.119
817.00	73.855
818.00	74.614
819.00	73.191
820.00	73.149
821.00	72.844
822.00	72.695
823.00	73.320
824.00	73.891
825.00	73.326
826.00	73.931
827.00	73.450
828.00	73.779
829.00	73.379
830.00	72.961
831.00	73.394
832.00	73.414
833.00	73.399
834.00	73.055
835.00	73.137
836.00	73.483
837.00	72.670
838.00	71.855
839.00	73.071
840.00	74.355
841.00	73.030
842.00	73.497
843.00	73.529
844.00	73.316
845.00	73.117
846.00	71.907
847.00	74.186
848.00	73.724
849.00	73.758
850.00	72.660
851.00	72.215
852.00	74.303
853.00	73.286
854.00	73.918
855.00	75.380
856.00	72.791
857.00	73.907
858.00	74.216
859.00	75.084
860.00	73.846
861.00	74.007
862.00	73.299
863.00	74.878
864.00	74.622
865.00	75.381
866.00	73.702
867.00	74.990
868.00	75.204
869.00	73.744
870.00	75.480
871.00	74.616
872.00	74.769
873.00	75.568
874.00	74.357
875.00	74.561
876.00	76.102
877.00	75.828
878.00	75.883
879.00	75.269
880.00	76.591
881.00	73.363
882.00	76.830
883.00	77.784
884.00	75.323
885.00	76.308
886.00	77.145
887.00	76.247
888.00	77.649
889.00	76.086
890.00	77.475
891.00	78.305
892.00	76.860
893.00	77.486
894.00	77.733
895.00	80.176
896.00	77.686
897.00	78.756
898.00	80.527
899.00	77.521
900.00	77.994
901.00	79.567
902.00	78.737
903.00	82.077
904.00	78.535
905.00	79.988
906.00	80.202
907.00	81.849
908.00	81.406
909.00	81.713
910.00	79.745
911.00	80.741
912.00	79.907
913.00	81.472
914.00	79.098
915.00	81.682
916.00	82.863
917.00	81.622
918.00	78.356
919.00	81.107
920.00	84.677
921.00	83.077
922.00	82.323
923.00	79.989
924.00	83.031
925.00	81.320
926.00	83.537
927.00	83.002
928.00	84.078
929.00	86.078
930.00	82.750
931.00	85.627
932.00	85.659
933.00	85.790
934.00	86.700
935.00	83.490
936.00	83.860
937.00	84.169
938.00	86.024
939.00	84.163
940.00	87.123
941.00	87.280
942.00	88.806
943.00	84.144
944.00	86.723
945.00	90.228
946.00	87.634
947.00	87.509
948.00	93.252
949.00	88.568
950.00	94.215
951.00	90.023
952.00	87.589
953.00	81.728
954.00	87.744
955.00	89.774
956.00	89.988
957.00	88.404
958.00	89.986
959.00	86.248
960.00	94.747
961.00	93.687
962.00	88.019
963.00	91.133
964.00	94.165
965.00	94.409
966.00	88.291
967.00	88.987
968.00	87.429
969.00	97.741
970.00	94.199
971.00	90.625
972.00	94.755
973.00	89.897
974.00	96.583
975.00	91.077
976.00	87.196
977.00	98.297
978.00	93.711
979.00	97.700
980.00	88.530
981.00	103.385
982.00	91.032
983.00	100.150
984.00	93.154
985.00	85.073
986.00	96.164
987.00	97.430
988.00	97.218
989.00	95.043
990.00	95.416
991.00	105.691
992.00	91.880
993.00	82.924
994.00	100.506
995.00	98.615
996.00	91.597
997.00	113.501
998.00	90.288
999.00	95.364
1000.00	85.059
>>>>>End Processed Spectral Data<<<<<
