SpectraSuite Data File
++++++++++++++++++++++++++++++++++++
Date: Thu Nov 20 12:11:48 CET 2014
User: admin
Dark Spectrum Present: Yes
Reference Spectrum Present: Yes
Number of Sampled Component Spectra: 1
Spectrometers: USB2G49547
Integration Time (usec): 300000 (USB2G49547)
Spectra Averaged: 8 (USB2G49547)
Boxcar Smoothing: 0 (USB2G49547)
Correct for Electrical Dark: No (USB2G49547)
Strobe/Lamp Enabled: No (USB2G49547)
Correct for Detector Non-linearity: No (USB2G49547)
Correct for Stray Light: No (USB2G49547)
Number of Pixels in Processed Spectrum: 651
>>>>>Begin Processed Spectral Data<<<<<
350.00	78.418
351.00	100.462
352.00	105.227
353.00	74.372
354.00	179.831
355.00	69.758
356.00	98.463
357.00	132.909
358.00	95.472
359.00	62.031
360.00	117.640
361.00	110.935
362.00	127.865
363.00	153.912
364.00	100.181
365.00	78.901
366.00	82.338
367.00	113.458
368.00	59.729
369.00	148.981
370.00	106.153
371.00	161.128
372.00	77.124
373.00	118.833
374.00	82.110
375.00	135.738
376.00	67.321
377.00	63.003
378.00	120.111
379.00	38.793
380.00	103.818
381.00	92.547
382.00	181.915
383.00	116.377
384.00	131.369
385.00	71.794
386.00	89.920
387.00	136.807
388.00	144.199
389.00	75.400
390.00	123.653
391.00	111.044
392.00	148.327
393.00	104.692
394.00	103.940
395.00	67.766
396.00	102.305
397.00	118.544
398.00	97.209
399.00	62.440
400.00	75.834
401.00	78.656
402.00	99.270
403.00	99.771
404.00	92.937
405.00	98.833
406.00	103.604
407.00	100.249
408.00	102.636
409.00	97.454
410.00	100.916
411.00	128.636
412.00	84.240
413.00	84.138
414.00	112.086
415.00	98.610
416.00	88.679
417.00	101.031
418.00	82.177
419.00	93.317
420.00	85.263
421.00	107.759
422.00	91.272
423.00	116.034
424.00	96.848
425.00	107.591
426.00	97.122
427.00	100.924
428.00	89.962
429.00	108.651
430.00	77.360
431.00	100.699
432.00	105.090
433.00	101.840
434.00	101.881
435.00	93.205
436.00	89.854
437.00	101.250
438.00	102.119
439.00	106.192
440.00	102.874
441.00	97.755
442.00	92.469
443.00	97.225
444.00	95.927
445.00	99.573
446.00	96.968
447.00	97.010
448.00	98.639
449.00	94.813
450.00	99.698
451.00	93.651
452.00	94.131
453.00	93.055
454.00	95.704
455.00	98.710
456.00	98.744
457.00	95.056
458.00	98.026
459.00	99.201
460.00	101.080
461.00	102.037
462.00	97.884
463.00	96.092
464.00	100.335
465.00	95.726
466.00	97.808
467.00	98.261
468.00	101.540
469.00	97.169
470.00	99.061
471.00	97.260
472.00	98.001
473.00	100.453
474.00	99.755
475.00	98.882
476.00	97.497
477.00	97.040
478.00	98.522
479.00	97.420
480.00	97.404
481.00	98.561
482.00	98.214
483.00	98.797
484.00	97.280
485.00	98.523
486.00	99.434
487.00	98.692
488.00	100.083
489.00	97.998
490.00	99.347
491.00	98.057
492.00	98.699
493.00	98.326
494.00	98.670
495.00	99.587
496.00	98.744
497.00	99.243
498.00	98.377
499.00	98.630
500.00	98.014
501.00	98.462
502.00	98.704
503.00	99.561
504.00	98.509
505.00	97.684
506.00	98.494
507.00	99.203
508.00	99.078
509.00	99.599
510.00	97.630
511.00	97.193
512.00	97.575
513.00	98.597
514.00	97.957
515.00	98.302
516.00	98.785
517.00	98.572
518.00	99.157
519.00	98.272
520.00	98.487
521.00	97.872
522.00	98.670
523.00	98.234
524.00	97.967
525.00	98.804
526.00	98.648
527.00	98.080
528.00	97.972
529.00	98.727
530.00	98.377
531.00	98.171
532.00	98.012
533.00	96.815
534.00	98.195
535.00	97.260
536.00	97.978
537.00	97.291
538.00	98.546
539.00	97.662
540.00	97.619
541.00	98.290
542.00	98.032
543.00	97.886
544.00	97.326
545.00	97.575
546.00	97.208
547.00	97.353
548.00	97.289
549.00	97.778
550.00	97.259
551.00	97.414
552.00	96.894
553.00	98.222
554.00	97.664
555.00	97.714
556.00	96.639
557.00	96.912
558.00	96.721
559.00	96.987
560.00	97.639
561.00	97.249
562.00	96.214
563.00	96.109
564.00	96.530
565.00	97.196
566.00	97.372
567.00	97.398
568.00	97.116
569.00	97.052
570.00	97.014
571.00	96.986
572.00	96.834
573.00	96.621
574.00	97.250
575.00	96.228
576.00	96.389
577.00	96.896
578.00	96.465
579.00	96.701
580.00	95.343
581.00	97.063
582.00	96.458
583.00	96.733
584.00	95.960
585.00	96.459
586.00	96.803
587.00	96.145
588.00	96.641
589.00	96.755
590.00	96.709
591.00	96.008
592.00	96.255
593.00	96.393
594.00	96.543
595.00	95.756
596.00	95.651
597.00	96.013
598.00	95.351
599.00	95.588
600.00	96.072
601.00	96.057
602.00	95.749
603.00	96.786
604.00	95.465
605.00	95.929
606.00	95.740
607.00	96.214
608.00	96.145
609.00	95.676
610.00	95.321
611.00	95.941
612.00	95.623
613.00	95.251
614.00	95.704
615.00	95.710
616.00	95.701
617.00	95.186
618.00	96.347
619.00	95.748
620.00	96.336
621.00	94.576
622.00	95.112
623.00	95.062
624.00	95.452
625.00	95.798
626.00	95.704
627.00	95.301
628.00	95.311
629.00	95.526
630.00	96.030
631.00	96.070
632.00	94.901
633.00	94.946
634.00	95.713
635.00	95.646
636.00	94.908
637.00	96.208
638.00	95.762
639.00	94.717
640.00	95.622
641.00	95.396
642.00	95.378
643.00	95.813
644.00	94.927
645.00	95.743
646.00	95.058
647.00	95.019
648.00	96.010
649.00	95.549
650.00	95.306
651.00	94.902
652.00	95.022
653.00	95.590
654.00	95.527
655.00	96.278
656.00	95.405
657.00	95.666
658.00	95.636
659.00	95.904
660.00	96.065
661.00	95.502
662.00	95.781
663.00	95.304
664.00	95.462
665.00	95.229
666.00	95.134
667.00	95.250
668.00	95.401
669.00	95.762
670.00	95.412
671.00	95.621
672.00	95.440
673.00	95.728
674.00	95.706
675.00	96.276
676.00	95.653
677.00	96.062
678.00	96.170
679.00	95.272
680.00	95.605
681.00	96.230
682.00	96.188
683.00	96.422
684.00	96.066
685.00	96.377
686.00	96.468
687.00	97.005
688.00	96.494
689.00	96.022
690.00	95.813
691.00	96.200
692.00	96.995
693.00	96.218
694.00	95.702
695.00	96.314
696.00	96.232
697.00	96.550
698.00	96.988
699.00	96.185
700.00	96.122
701.00	96.339
702.00	96.054
703.00	96.282
704.00	96.770
705.00	96.209
706.00	97.257
707.00	96.738
708.00	96.324
709.00	96.866
710.00	95.841
711.00	96.275
712.00	96.449
713.00	96.440
714.00	96.341
715.00	96.974
716.00	97.251
717.00	97.024
718.00	95.571
719.00	97.335
720.00	96.496
721.00	96.589
722.00	95.946
723.00	96.444
724.00	96.848
725.00	96.414
726.00	96.601
727.00	96.551
728.00	95.882
729.00	96.010
730.00	96.672
731.00	96.911
732.00	96.515
733.00	96.983
734.00	95.979
735.00	95.764
736.00	95.642
737.00	96.643
738.00	96.095
739.00	95.711
740.00	96.110
741.00	95.563
742.00	95.442
743.00	95.940
744.00	95.449
745.00	94.853
746.00	94.520
747.00	95.065
748.00	94.775
749.00	95.935
750.00	95.700
751.00	93.977
752.00	94.666
753.00	93.554
754.00	93.553
755.00	93.696
756.00	93.265
757.00	93.234
758.00	92.769
759.00	93.168
760.00	92.687
761.00	92.796
762.00	92.587
763.00	92.898
764.00	92.110
765.00	91.984
766.00	91.769
767.00	91.749
768.00	91.253
769.00	91.160
770.00	90.642
771.00	91.075
772.00	91.384
773.00	89.681
774.00	90.939
775.00	90.310
776.00	89.282
777.00	89.523
778.00	89.242
779.00	88.319
780.00	88.680
781.00	88.488
782.00	87.139
783.00	87.723
784.00	87.387
785.00	88.121
786.00	86.605
787.00	85.841
788.00	87.015
789.00	86.002
790.00	84.958
791.00	84.507
792.00	84.726
793.00	85.133
794.00	84.750
795.00	83.886
796.00	82.378
797.00	83.059
798.00	82.965
799.00	83.071
800.00	82.462
801.00	82.516
802.00	81.013
803.00	81.272
804.00	82.337
805.00	80.090
806.00	80.455
807.00	79.697
808.00	79.003
809.00	79.051
810.00	77.989
811.00	77.975
812.00	78.304
813.00	78.488
814.00	77.443
815.00	78.637
816.00	77.895
817.00	77.244
818.00	76.817
819.00	76.295
820.00	76.250
821.00	75.857
822.00	75.353
823.00	75.592
824.00	76.459
825.00	75.359
826.00	75.690
827.00	75.464
828.00	75.713
829.00	74.010
830.00	74.082
831.00	74.534
832.00	74.270
833.00	74.299
834.00	74.417
835.00	73.776
836.00	73.740
837.00	73.538
838.00	73.037
839.00	73.064
840.00	73.627
841.00	72.834
842.00	72.939
843.00	72.652
844.00	73.331
845.00	71.998
846.00	73.508
847.00	73.283
848.00	74.688
849.00	73.047
850.00	73.563
851.00	72.034
852.00	73.365
853.00	72.741
854.00	73.109
855.00	72.613
856.00	72.991
857.00	73.071
858.00	70.976
859.00	72.966
860.00	71.900
861.00	72.573
862.00	71.555
863.00	72.045
864.00	71.679
865.00	71.609
866.00	71.761
867.00	72.025
868.00	72.205
869.00	72.494
870.00	72.801
871.00	71.905
872.00	70.781
873.00	72.202
874.00	72.074
875.00	70.686
876.00	73.329
877.00	72.803
878.00	71.436
879.00	71.438
880.00	70.423
881.00	70.521
882.00	71.560
883.00	71.584
884.00	72.633
885.00	73.022
886.00	72.420
887.00	71.865
888.00	73.418
889.00	71.276
890.00	74.037
891.00	71.369
892.00	72.932
893.00	72.811
894.00	72.801
895.00	71.156
896.00	72.948
897.00	74.140
898.00	72.493
899.00	73.493
900.00	71.048
901.00	74.943
902.00	71.295
903.00	75.589
904.00	74.510
905.00	72.399
906.00	74.191
907.00	75.266
908.00	75.860
909.00	75.473
910.00	73.866
911.00	74.600
912.00	74.570
913.00	74.966
914.00	76.825
915.00	77.048
916.00	75.132
917.00	74.483
918.00	76.609
919.00	79.076
920.00	77.249
921.00	77.202
922.00	78.253
923.00	76.034
924.00	77.786
925.00	75.678
926.00	80.635
927.00	77.769
928.00	78.682
929.00	76.226
930.00	77.311
931.00	80.161
932.00	80.228
933.00	80.500
934.00	82.007
935.00	81.673
936.00	86.654
937.00	82.931
938.00	82.549
939.00	84.305
940.00	85.707
941.00	80.807
942.00	85.612
943.00	79.952
944.00	80.046
945.00	85.024
946.00	82.107
947.00	83.398
948.00	80.186
949.00	86.171
950.00	84.973
951.00	85.652
952.00	81.771
953.00	84.970
954.00	79.008
955.00	90.483
956.00	84.717
957.00	92.378
958.00	87.404
959.00	88.188
960.00	87.643
961.00	89.573
962.00	82.735
963.00	82.664
964.00	90.248
965.00	95.191
966.00	85.109
967.00	90.454
968.00	83.310
969.00	88.115
970.00	90.627
971.00	80.733
972.00	90.370
973.00	81.184
974.00	85.813
975.00	89.994
976.00	92.599
977.00	86.564
978.00	85.990
979.00	83.664
980.00	82.188
981.00	86.084
982.00	87.364
983.00	82.594
984.00	86.805
985.00	79.288
986.00	87.398
987.00	80.132
988.00	81.137
989.00	86.863
990.00	92.603
991.00	95.005
992.00	98.584
993.00	74.739
994.00	78.240
995.00	98.818
996.00	104.415
997.00	92.398
998.00	103.322
999.00	82.913
1000.00	84.758
>>>>>End Processed Spectral Data<<<<<
