SpectraSuite Data File
++++++++++++++++++++++++++++++++++++
Date: Thu Nov 20 12:13:24 CET 2014
User: admin
Spectrometer Serial Number: USB2G49547
Spectrometer Channel: 0
Integration Time (usec): 300000
Spectra Averaged: 8
Boxcar Smoothing: 0
Correct for Electrical Dark: No
Strobe/Lamp Enabled: No
Correct for Detector Non-linearity: No
Correct for Stray Light: No
Number of Pixels in Spectrum: 651
>>>>>Begin Spectral Data<<<<<
350.00	219.275
351.00	218.665
352.00	220.165
353.00	220.026
354.00	215.790
355.00	217.243
356.00	221.687
357.00	220.243
358.00	218.571
359.00	217.056
360.00	220.213
361.00	219.975
362.00	218.224
363.00	219.872
364.00	218.638
365.00	217.483
366.00	218.625
367.00	218.512
368.00	218.778
369.00	220.497
370.00	223.113
371.00	221.968
372.00	222.857
373.00	220.536
374.00	221.538
375.00	222.487
376.00	221.820
377.00	221.976
378.00	219.902
379.00	220.904
380.00	219.698
381.00	222.971
382.00	220.775
383.00	217.988
384.00	221.765
385.00	228.938
386.00	222.623
387.00	222.764
388.00	223.953
389.00	222.627
390.00	222.122
391.00	222.042
392.00	221.280
393.00	220.881
394.00	224.714
395.00	221.481
396.00	222.448
397.00	225.295
398.00	227.078
399.00	226.671
400.00	223.747
401.00	225.607
402.00	225.015
403.00	230.388
404.00	222.648
405.00	225.246
406.00	227.191
407.00	224.878
408.00	236.800
409.00	226.007
410.00	228.181
411.00	228.800
412.00	226.761
413.00	227.501
414.00	230.681
415.00	229.981
416.00	232.258
417.00	236.269
418.00	235.003
419.00	233.439
420.00	231.054
421.00	233.969
422.00	231.314
423.00	231.103
424.00	233.418
425.00	234.297
426.00	235.803
427.00	245.266
428.00	240.232
429.00	239.725
430.00	241.171
431.00	240.217
432.00	242.705
433.00	244.218
434.00	244.880
435.00	252.215
436.00	245.892
437.00	250.872
438.00	250.244
439.00	251.297
440.00	255.676
441.00	252.310
442.00	257.637
443.00	257.128
444.00	289.516
445.00	267.915
446.00	262.277
447.00	264.705
448.00	264.232
449.00	265.717
450.00	270.579
451.00	273.036
452.00	275.476
453.00	275.507
454.00	280.539
455.00	279.173
456.00	287.933
457.00	286.831
458.00	293.955
459.00	294.463
460.00	294.166
461.00	300.419
462.00	301.539
463.00	305.090
464.00	310.233
465.00	312.205
466.00	320.244
467.00	324.260
468.00	333.646
469.00	347.524
470.00	347.971
471.00	354.133
472.00	358.750
473.00	366.942
474.00	375.043
475.00	391.114
476.00	401.162
477.00	414.005
478.00	433.734
479.00	441.539
480.00	460.745
481.00	480.284
482.00	490.467
483.00	509.741
484.00	532.203
485.00	540.871
486.00	558.356
487.00	578.596
488.00	608.126
489.00	626.822
490.00	648.671
491.00	684.187
492.00	710.069
493.00	726.122
494.00	762.954
495.00	801.488
496.00	814.834
497.00	850.546
498.00	832.095
499.00	887.502
500.00	901.811
501.00	937.784
502.00	967.928
503.00	1038.845
504.00	1091.624
505.00	1098.757
506.00	1123.244
507.00	1152.402
508.00	1164.447
509.00	1195.112
510.00	1221.867
511.00	1271.971
512.00	1289.160
513.00	1332.096
514.00	1333.957
515.00	1357.250
516.00	1408.937
517.00	1421.587
518.00	1487.186
519.00	1503.769
520.00	1534.539
521.00	1578.302
522.00	1607.008
523.00	1628.163
524.00	1658.855
525.00	1696.041
526.00	1722.089
527.00	1790.862
528.00	1811.760
529.00	1834.072
530.00	1842.716
531.00	1884.117
532.00	1933.678
533.00	1957.330
534.00	1986.899
535.00	2007.249
536.00	2022.569
537.00	2046.364
538.00	2096.288
539.00	2120.423
540.00	2167.167
541.00	2210.668
542.00	2225.041
543.00	2274.982
544.00	2296.970
545.00	2329.083
546.00	2292.491
547.00	2361.858
548.00	2370.015
549.00	2446.083
550.00	2431.661
551.00	2438.159
552.00	2477.489
553.00	2487.148
554.00	2510.853
555.00	2600.743
556.00	2588.319
557.00	2621.953
558.00	2583.732
559.00	2649.543
560.00	2679.191
561.00	2680.404
562.00	2716.534
563.00	2668.549
564.00	2720.379
565.00	2759.180
566.00	2756.100
567.00	2794.007
568.00	2804.054
569.00	2807.993
570.00	2843.973
571.00	2857.837
572.00	2891.310
573.00	2917.728
574.00	2904.520
575.00	2929.307
576.00	2935.759
577.00	2928.704
578.00	2978.627
579.00	3007.700
580.00	3030.093
581.00	3029.175
582.00	3092.664
583.00	3040.071
584.00	3051.099
585.00	3094.951
586.00	3126.680
587.00	3143.529
588.00	3155.682
589.00	3180.337
590.00	3212.861
591.00	3224.134
592.00	3167.874
593.00	3261.654
594.00	3279.601
595.00	3295.645
596.00	3263.683
597.00	3329.153
598.00	3304.211
599.00	3353.043
600.00	3377.340
601.00	3442.451
602.00	3502.038
603.00	3373.108
604.00	3459.715
605.00	3452.634
606.00	3481.896
607.00	3525.833
608.00	3483.813
609.00	3512.335
610.00	3519.478
611.00	3514.794
612.00	3506.203
613.00	3544.992
614.00	3562.673
615.00	3572.559
616.00	3579.465
617.00	3601.646
618.00	3537.433
619.00	3570.861
620.00	3578.603
621.00	3559.813
622.00	3592.380
623.00	3621.184
624.00	3627.330
625.00	3639.455
626.00	3642.297
627.00	3721.707
628.00	3661.230
629.00	3702.656
630.00	3648.920
631.00	3669.844
632.00	3693.440
633.00	3680.365
634.00	3725.602
635.00	3698.947
636.00	3670.462
637.00	3711.234
638.00	3660.895
639.00	3684.267
640.00	3680.170
641.00	3706.711
642.00	3712.547
643.00	3704.748
644.00	3765.749
645.00	3706.574
646.00	3760.377
647.00	3708.860
648.00	3754.104
649.00	3710.626
650.00	3723.793
651.00	3772.598
652.00	3695.765
653.00	3773.354
654.00	3812.065
655.00	3836.474
656.00	3742.923
657.00	3770.261
658.00	3762.134
659.00	3759.347
660.00	3758.349
661.00	3707.025
662.00	3681.771
663.00	3593.461
664.00	3688.574
665.00	3773.505
666.00	3605.211
667.00	3666.302
668.00	3602.203
669.00	3637.403
670.00	3597.482
671.00	3654.772
672.00	3568.578
673.00	3572.835
674.00	3587.853
675.00	3561.946
676.00	3550.538
677.00	3563.495
678.00	3478.808
679.00	3521.439
680.00	3473.535
681.00	3496.278
682.00	3450.661
683.00	3395.895
684.00	3409.659
685.00	3420.714
686.00	3350.771
687.00	3391.797
688.00	3364.558
689.00	3275.161
690.00	3280.644
691.00	3273.086
692.00	3242.644
693.00	3280.845
694.00	3291.702
695.00	3290.589
696.00	3231.485
697.00	3194.161
698.00	3149.109
699.00	3128.744
700.00	3071.922
701.00	3077.032
702.00	3045.895
703.00	3015.203
704.00	3060.269
705.00	3007.620
706.00	2983.169
707.00	2975.520
708.00	2988.034
709.00	2879.464
710.00	2913.192
711.00	2909.830
712.00	2906.824
713.00	2921.837
714.00	2869.202
715.00	2796.120
716.00	2822.765
717.00	2782.064
718.00	2712.417
719.00	2778.427
720.00	2707.260
721.00	2814.871
722.00	2693.655
723.00	2671.295
724.00	2638.364
725.00	2623.057
726.00	2619.289
727.00	2608.567
728.00	2616.923
729.00	2595.338
730.00	2551.249
731.00	2525.923
732.00	2524.056
733.00	2519.423
734.00	2489.484
735.00	2434.935
736.00	2453.564
737.00	2378.545
738.00	2381.450
739.00	2375.419
740.00	2351.342
741.00	2370.917
742.00	2309.191
743.00	2258.275
744.00	2275.770
745.00	2247.267
746.00	2209.273
747.00	2163.073
748.00	2145.082
749.00	2129.767
750.00	2133.753
751.00	2121.488
752.00	2066.748
753.00	2042.831
754.00	1989.520
755.00	2000.240
756.00	1959.018
757.00	1938.978
758.00	1932.639
759.00	1932.421
760.00	1901.743
761.00	1908.137
762.00	1853.004
763.00	1867.653
764.00	1821.162
765.00	1750.631
766.00	1743.789
767.00	1752.473
768.00	1727.888
769.00	1656.011
770.00	1650.028
771.00	1648.821
772.00	1649.566
773.00	1615.280
774.00	1609.899
775.00	1540.216
776.00	1532.948
777.00	1522.150
778.00	1503.237
779.00	1519.577
780.00	1492.168
781.00	1479.457
782.00	1497.500
783.00	1480.131
784.00	1465.346
785.00	1424.302
786.00	1418.014
787.00	1428.478
788.00	1392.953
789.00	1378.391
790.00	1427.199
791.00	1393.195
792.00	1383.429
793.00	1412.602
794.00	1397.293
795.00	1412.516
796.00	1368.709
797.00	1372.000
798.00	1320.095
799.00	1331.073
800.00	1332.048
801.00	1317.783
802.00	1308.454
803.00	1303.348
804.00	1274.789
805.00	1219.368
806.00	1195.981
807.00	1164.065
808.00	1174.439
809.00	1147.677
810.00	1109.865
811.00	1097.629
812.00	1110.005
813.00	1095.170
814.00	1098.032
815.00	1048.026
816.00	1049.588
817.00	1053.394
818.00	1033.445
819.00	991.689
820.00	1021.403
821.00	1002.030
822.00	970.922
823.00	979.717
824.00	975.852
825.00	939.580
826.00	905.246
827.00	908.192
828.00	897.725
829.00	885.446
830.00	879.026
831.00	855.242
832.00	833.345
833.00	817.000
834.00	812.749
835.00	803.153
836.00	802.339
837.00	784.535
838.00	773.000
839.00	761.369
840.00	758.879
841.00	730.607
842.00	728.080
843.00	715.625
844.00	713.351
845.00	708.541
846.00	703.286
847.00	689.727
848.00	690.981
849.00	674.087
850.00	661.420
851.00	657.381
852.00	650.150
853.00	636.412
854.00	629.491
855.00	618.396
856.00	618.941
857.00	610.883
858.00	618.012
859.00	605.781
860.00	598.968
861.00	595.490
862.00	590.248
863.00	588.274
864.00	566.246
865.00	562.287
866.00	566.899
867.00	562.014
868.00	545.672
869.00	549.844
870.00	533.652
871.00	539.318
872.00	534.426
873.00	528.781
874.00	518.207
875.00	513.064
876.00	495.190
877.00	492.534
878.00	489.715
879.00	491.408
880.00	481.244
881.00	473.981
882.00	479.076
883.00	463.249
884.00	463.953
885.00	465.649
886.00	465.967
887.00	463.969
888.00	449.005
889.00	453.621
890.00	449.677
891.00	448.602
892.00	439.179
893.00	443.676
894.00	443.765
895.00	444.042
896.00	435.543
897.00	442.864
898.00	438.787
899.00	436.462
900.00	430.075
901.00	426.905
902.00	414.634
903.00	413.334
904.00	416.613
905.00	419.221
906.00	417.922
907.00	413.602
908.00	414.544
909.00	400.481
910.00	399.487
911.00	393.432
912.00	386.044
913.00	382.303
914.00	384.904
915.00	371.061
916.00	373.554
917.00	369.253
918.00	362.475
919.00	354.671
920.00	346.618
921.00	350.035
922.00	352.353
923.00	344.900
924.00	335.337
925.00	330.840
926.00	329.303
927.00	328.278
928.00	324.974
929.00	320.016
930.00	319.395
931.00	317.652
932.00	311.136
933.00	310.127
934.00	314.277
935.00	312.144
936.00	304.894
937.00	305.271
938.00	301.304
939.00	300.231
940.00	295.524
941.00	290.536
942.00	288.216
943.00	288.984
944.00	287.045
945.00	285.535
946.00	281.674
947.00	276.815
948.00	278.410
949.00	278.618
950.00	275.937
951.00	275.004
952.00	273.846
953.00	269.933
954.00	265.829
955.00	267.854
956.00	268.724
957.00	265.027
958.00	266.421
959.00	265.912
960.00	264.100
961.00	257.593
962.00	257.673
963.00	272.109
964.00	256.739
965.00	259.271
966.00	253.031
967.00	251.048
968.00	251.028
969.00	249.631
970.00	250.407
971.00	252.323
972.00	247.578
973.00	247.121
974.00	244.528
975.00	245.421
976.00	241.418
977.00	241.279
978.00	240.688
979.00	240.610
980.00	247.376
981.00	239.629
982.00	239.088
983.00	237.105
984.00	236.885
985.00	237.669
986.00	236.133
987.00	237.748
988.00	234.808
989.00	233.520
990.00	235.386
991.00	231.669
992.00	233.140
993.00	232.769
994.00	231.466
995.00	233.852
996.00	230.499
997.00	228.554
998.00	231.325
999.00	228.466
1000.00	229.596
>>>>>End Spectral Data<<<<<
