SpectraSuite Data File
++++++++++++++++++++++++++++++++++++
Date: Thu Nov 20 12:19:38 CET 2014
User: admin
Spectrometer Serial Number: USB2G49547
Spectrometer Channel: 0
Integration Time (usec): 300000
Spectra Averaged: 8
Boxcar Smoothing: 0
Correct for Electrical Dark: No
Strobe/Lamp Enabled: No
Correct for Detector Non-linearity: No
Correct for Stray Light: No
Number of Pixels in Spectrum: 651
>>>>>Begin Spectral Data<<<<<
350.00	215.759
351.00	218.186
352.00	220.757
353.00	217.419
354.00	217.835
355.00	217.389
356.00	222.056
357.00	217.855
358.00	217.234
359.00	218.645
360.00	219.060
361.00	220.894
362.00	220.175
363.00	219.943
364.00	218.463
365.00	216.650
366.00	218.847
367.00	221.030
368.00	220.942
369.00	220.128
370.00	220.187
371.00	222.824
372.00	223.941
373.00	220.079
374.00	221.630
375.00	218.881
376.00	219.417
377.00	219.958
378.00	218.658
379.00	220.572
380.00	223.424
381.00	220.543
382.00	222.886
383.00	219.579
384.00	218.780
385.00	228.616
386.00	224.329
387.00	223.045
388.00	221.670
389.00	223.120
390.00	221.440
391.00	219.701
392.00	221.244
393.00	221.017
394.00	225.740
395.00	223.145
396.00	222.682
397.00	223.297
398.00	224.387
399.00	227.222
400.00	225.605
401.00	224.786
402.00	225.409
403.00	229.983
404.00	223.664
405.00	225.018
406.00	226.928
407.00	225.782
408.00	238.799
409.00	227.833
410.00	227.028
411.00	227.878
412.00	226.900
413.00	225.871
414.00	230.424
415.00	230.976
416.00	229.445
417.00	236.289
418.00	232.949
419.00	231.640
420.00	229.008
421.00	232.961
422.00	229.827
423.00	231.178
424.00	233.300
425.00	234.566
426.00	232.779
427.00	241.778
428.00	237.702
429.00	238.443
430.00	242.394
431.00	241.189
432.00	244.292
433.00	244.035
434.00	244.137
435.00	247.506
436.00	243.624
437.00	250.072
438.00	252.167
439.00	250.339
440.00	256.232
441.00	253.752
442.00	256.508
443.00	257.239
444.00	294.037
445.00	265.245
446.00	260.951
447.00	263.070
448.00	264.929
449.00	265.093
450.00	270.041
451.00	270.622
452.00	276.672
453.00	274.747
454.00	278.476
455.00	279.263
456.00	289.307
457.00	283.830
458.00	292.002
459.00	291.022
460.00	294.179
461.00	299.700
462.00	300.496
463.00	302.992
464.00	310.420
465.00	315.508
466.00	317.745
467.00	326.762
468.00	332.062
469.00	349.496
470.00	346.005
471.00	352.682
472.00	356.728
473.00	365.712
474.00	371.938
475.00	388.781
476.00	401.122
477.00	412.898
478.00	431.948
479.00	439.962
480.00	460.283
481.00	472.964
482.00	488.725
483.00	509.896
484.00	533.297
485.00	537.864
486.00	563.847
487.00	580.922
488.00	605.439
489.00	631.081
490.00	644.620
491.00	679.720
492.00	706.864
493.00	725.819
494.00	763.321
495.00	793.572
496.00	813.786
497.00	850.828
498.00	836.913
499.00	891.137
500.00	907.072
501.00	930.123
502.00	958.939
503.00	1038.538
504.00	1081.485
505.00	1105.123
506.00	1120.802
507.00	1148.427
508.00	1159.463
509.00	1179.735
510.00	1223.096
511.00	1273.139
512.00	1286.425
513.00	1326.117
514.00	1327.000
515.00	1358.500
516.00	1398.659
517.00	1409.721
518.00	1475.304
519.00	1496.220
520.00	1542.925
521.00	1573.871
522.00	1602.441
523.00	1614.710
524.00	1658.801
525.00	1692.092
526.00	1706.490
527.00	1793.686
528.00	1804.580
529.00	1818.813
530.00	1833.334
531.00	1893.217
532.00	1939.088
533.00	1949.804
534.00	1985.911
535.00	2000.930
536.00	2006.964
537.00	2034.014
538.00	2094.306
539.00	2091.890
540.00	2152.884
541.00	2202.412
542.00	2206.744
543.00	2257.925
544.00	2286.504
545.00	2330.722
546.00	2294.994
547.00	2333.230
548.00	2346.486
549.00	2416.428
550.00	2420.429
551.00	2415.099
552.00	2477.961
553.00	2484.705
554.00	2499.227
555.00	2572.584
556.00	2552.192
557.00	2605.560
558.00	2590.536
559.00	2601.115
560.00	2652.210
561.00	2677.752
562.00	2670.860
563.00	2665.703
564.00	2728.213
565.00	2743.023
566.00	2749.149
567.00	2775.921
568.00	2748.704
569.00	2781.786
570.00	2819.392
571.00	2846.503
572.00	2853.515
573.00	2875.874
574.00	2857.760
575.00	2900.752
576.00	2906.212
577.00	2896.955
578.00	2946.575
579.00	2969.022
580.00	3016.932
581.00	3021.476
582.00	3086.441
583.00	3046.577
584.00	3061.476
585.00	3120.377
586.00	3100.204
587.00	3120.597
588.00	3138.262
589.00	3138.466
590.00	3230.751
591.00	3211.987
592.00	3160.685
593.00	3252.416
594.00	3255.475
595.00	3277.263
596.00	3231.562
597.00	3281.276
598.00	3282.294
599.00	3327.072
600.00	3327.901
601.00	3388.728
602.00	3449.576
603.00	3331.517
604.00	3419.362
605.00	3423.021
606.00	3413.063
607.00	3486.112
608.00	3434.939
609.00	3459.257
610.00	3459.779
611.00	3458.785
612.00	3464.719
613.00	3460.211
614.00	3505.526
615.00	3532.188
616.00	3548.894
617.00	3550.817
618.00	3513.994
619.00	3536.154
620.00	3586.987
621.00	3550.239
622.00	3527.428
623.00	3569.250
624.00	3537.531
625.00	3567.859
626.00	3571.885
627.00	3601.642
628.00	3583.516
629.00	3642.193
630.00	3623.401
631.00	3643.033
632.00	3633.327
633.00	3617.309
634.00	3615.753
635.00	3641.426
636.00	3645.093
637.00	3659.983
638.00	3585.939
639.00	3641.229
640.00	3634.611
641.00	3673.094
642.00	3673.577
643.00	3687.916
644.00	3705.386
645.00	3661.544
646.00	3699.404
647.00	3641.417
648.00	3734.879
649.00	3687.965
650.00	3680.979
651.00	3719.731
652.00	3654.973
653.00	3725.974
654.00	3722.807
655.00	3771.956
656.00	3727.087
657.00	3761.910
658.00	3700.464
659.00	3736.590
660.00	3704.717
661.00	3638.686
662.00	3645.696
663.00	3584.515
664.00	3691.780
665.00	3757.386
666.00	3602.048
667.00	3638.884
668.00	3554.840
669.00	3600.177
670.00	3584.148
671.00	3641.080
672.00	3541.205
673.00	3566.289
674.00	3569.171
675.00	3553.104
676.00	3529.023
677.00	3525.654
678.00	3457.215
679.00	3506.335
680.00	3450.454
681.00	3489.130
682.00	3406.051
683.00	3434.181
684.00	3403.413
685.00	3391.747
686.00	3337.170
687.00	3373.918
688.00	3324.068
689.00	3288.937
690.00	3256.352
691.00	3289.172
692.00	3239.850
693.00	3275.860
694.00	3256.546
695.00	3262.482
696.00	3201.956
697.00	3180.406
698.00	3123.455
699.00	3117.121
700.00	3046.124
701.00	3076.233
702.00	3041.474
703.00	3030.007
704.00	3020.470
705.00	2989.335
706.00	2979.808
707.00	2948.158
708.00	2976.979
709.00	2887.525
710.00	2893.714
711.00	2842.607
712.00	2861.096
713.00	2860.527
714.00	2858.092
715.00	2810.229
716.00	2828.003
717.00	2766.787
718.00	2695.055
719.00	2707.392
720.00	2688.041
721.00	2770.286
722.00	2699.490
723.00	2634.256
724.00	2623.620
725.00	2624.867
726.00	2628.238
727.00	2610.903
728.00	2593.594
729.00	2583.121
730.00	2511.914
731.00	2483.186
732.00	2482.945
733.00	2448.670
734.00	2456.894
735.00	2433.448
736.00	2433.292
737.00	2345.740
738.00	2388.573
739.00	2359.657
740.00	2316.901
741.00	2358.028
742.00	2312.768
743.00	2230.078
744.00	2291.628
745.00	2238.744
746.00	2190.497
747.00	2152.987
748.00	2107.874
749.00	2098.885
750.00	2113.314
751.00	2114.355
752.00	2064.643
753.00	2034.740
754.00	2004.617
755.00	1976.060
756.00	1953.991
757.00	1953.772
758.00	1983.088
759.00	1940.562
760.00	1921.340
761.00	1886.971
762.00	1868.051
763.00	1834.665
764.00	1826.679
765.00	1762.397
766.00	1756.061
767.00	1727.893
768.00	1708.963
769.00	1660.964
770.00	1646.137
771.00	1624.659
772.00	1649.908
773.00	1606.080
774.00	1607.185
775.00	1546.415
776.00	1529.371
777.00	1517.303
778.00	1514.803
779.00	1519.122
780.00	1524.875
781.00	1479.086
782.00	1484.572
783.00	1464.718
784.00	1473.861
785.00	1412.053
786.00	1422.127
787.00	1409.958
788.00	1399.016
789.00	1389.584
790.00	1424.731
791.00	1407.409
792.00	1380.996
793.00	1386.542
794.00	1385.192
795.00	1393.111
796.00	1337.950
797.00	1361.244
798.00	1306.897
799.00	1304.972
800.00	1329.386
801.00	1319.703
802.00	1311.658
803.00	1299.207
804.00	1288.437
805.00	1216.083
806.00	1199.507
807.00	1165.887
808.00	1145.736
809.00	1135.459
810.00	1090.220
811.00	1111.114
812.00	1107.822
813.00	1081.578
814.00	1085.706
815.00	1049.803
816.00	1046.663
817.00	1042.100
818.00	1025.285
819.00	1000.754
820.00	1021.075
821.00	994.809
822.00	962.866
823.00	961.072
824.00	977.151
825.00	937.515
826.00	913.318
827.00	903.234
828.00	896.813
829.00	896.297
830.00	882.648
831.00	860.200
832.00	834.963
833.00	820.238
834.00	815.266
835.00	805.964
836.00	807.208
837.00	783.410
838.00	775.964
839.00	761.867
840.00	762.165
841.00	726.257
842.00	728.577
843.00	711.357
844.00	704.473
845.00	708.419
846.00	692.010
847.00	695.808
848.00	699.884
849.00	673.450
850.00	665.836
851.00	658.252
852.00	650.156
853.00	628.450
854.00	622.839
855.00	614.931
856.00	617.139
857.00	616.756
858.00	616.806
859.00	604.669
860.00	594.961
861.00	593.708
862.00	591.124
863.00	587.388
864.00	569.324
865.00	557.752
866.00	561.952
867.00	557.080
868.00	538.501
869.00	546.005
870.00	530.243
871.00	540.270
872.00	530.601
873.00	524.414
874.00	516.698
875.00	508.819
876.00	494.652
877.00	491.099
878.00	486.975
879.00	490.687
880.00	479.768
881.00	474.019
882.00	475.260
883.00	463.277
884.00	459.451
885.00	465.598
886.00	470.336
887.00	465.959
888.00	452.907
889.00	459.006
890.00	450.502
891.00	448.419
892.00	436.444
893.00	445.495
894.00	442.420
895.00	439.575
896.00	437.849
897.00	438.026
898.00	439.558
899.00	438.047
900.00	432.279
901.00	426.729
902.00	417.870
903.00	413.783
904.00	409.572
905.00	417.129
906.00	414.969
907.00	409.751
908.00	411.425
909.00	401.480
910.00	399.898
911.00	389.541
912.00	382.638
913.00	380.793
914.00	382.312
915.00	371.079
916.00	366.971
917.00	370.726
918.00	360.531
919.00	352.498
920.00	350.170
921.00	347.706
922.00	352.810
923.00	344.547
924.00	334.017
925.00	331.015
926.00	328.839
927.00	327.062
928.00	323.487
929.00	316.001
930.00	316.222
931.00	317.394
932.00	313.871
933.00	309.667
934.00	310.208
935.00	310.087
936.00	300.922
937.00	303.014
938.00	298.921
939.00	295.708
940.00	294.231
941.00	288.530
942.00	289.024
943.00	287.998
944.00	286.790
945.00	287.635
946.00	278.676
947.00	276.608
948.00	275.750
949.00	278.214
950.00	276.024
951.00	276.004
952.00	272.830
953.00	265.550
954.00	265.635
955.00	265.014
956.00	266.216
957.00	264.240
958.00	265.340
959.00	261.933
960.00	262.399
961.00	259.581
962.00	255.763
963.00	268.469
964.00	255.710
965.00	257.718
966.00	252.511
967.00	251.776
968.00	248.559
969.00	249.339
970.00	247.593
971.00	246.784
972.00	244.804
973.00	246.631
974.00	244.468
975.00	243.555
976.00	241.574
977.00	243.559
978.00	243.261
979.00	239.440
980.00	246.462
981.00	236.711
982.00	239.030
983.00	237.539
984.00	237.475
985.00	237.824
986.00	235.526
987.00	237.888
988.00	233.419
989.00	230.979
990.00	233.743
991.00	231.383
992.00	230.716
993.00	233.054
994.00	229.468
995.00	232.158
996.00	231.349
997.00	229.985
998.00	230.680
999.00	227.702
1000.00	229.423
>>>>>End Spectral Data<<<<<
