SpectraSuite Data File
++++++++++++++++++++++++++++++++++++
Date: Thu Nov 20 12:21:38 CET 2014
User: admin
Dark Spectrum Present: Yes
Reference Spectrum Present: Yes
Number of Sampled Component Spectra: 1
Spectrometers: USB2G49547
Integration Time (usec): 300000 (USB2G49547)
Spectra Averaged: 8 (USB2G49547)
Boxcar Smoothing: 0 (USB2G49547)
Correct for Electrical Dark: No (USB2G49547)
Strobe/Lamp Enabled: No (USB2G49547)
Correct for Detector Non-linearity: No (USB2G49547)
Correct for Stray Light: No (USB2G49547)
Number of Pixels in Processed Spectrum: 651
>>>>>Begin Processed Spectral Data<<<<<
350.00	146.230
351.00	140.585
352.00	129.102
353.00	116.079
354.00	94.148
355.00	106.376
356.00	154.933
357.00	129.085
358.00	185.069
359.00	97.198
360.00	87.307
361.00	123.335
362.00	137.780
363.00	216.144
364.00	106.603
365.00	178.591
366.00	96.157
367.00	67.338
368.00	109.710
369.00	99.646
370.00	131.816
371.00	59.693
372.00	79.098
373.00	93.336
374.00	142.682
375.00	116.113
376.00	83.815
377.00	120.879
378.00	110.082
379.00	536.617
380.00	75.704
381.00	74.375
382.00	82.921
383.00	115.221
384.00	140.854
385.00	142.396
386.00	136.193
387.00	93.621
388.00	70.833
389.00	111.379
390.00	75.407
391.00	62.033
392.00	81.047
393.00	113.851
394.00	129.418
395.00	139.254
396.00	78.426
397.00	139.790
398.00	112.490
399.00	121.653
400.00	102.680
401.00	102.940
402.00	92.277
403.00	72.868
404.00	142.978
405.00	122.198
406.00	87.768
407.00	106.367
408.00	100.623
409.00	73.070
410.00	86.326
411.00	95.667
412.00	104.742
413.00	101.265
414.00	106.288
415.00	101.561
416.00	85.196
417.00	118.457
418.00	100.630
419.00	81.969
420.00	89.800
421.00	94.871
422.00	103.430
423.00	96.893
424.00	91.402
425.00	97.852
426.00	111.896
427.00	81.818
428.00	82.823
429.00	85.072
430.00	88.974
431.00	95.038
432.00	101.529
433.00	95.014
434.00	106.346
435.00	93.821
436.00	91.883
437.00	99.375
438.00	98.395
439.00	102.553
440.00	93.979
441.00	96.371
442.00	98.394
443.00	93.344
444.00	99.547
445.00	95.900
446.00	102.491
447.00	95.441
448.00	88.069
449.00	94.035
450.00	101.782
451.00	98.669
452.00	91.958
453.00	98.721
454.00	98.903
455.00	92.891
456.00	95.432
457.00	92.540
458.00	92.215
459.00	95.946
460.00	94.776
461.00	99.209
462.00	99.660
463.00	97.560
464.00	97.518
465.00	99.365
466.00	101.464
467.00	95.989
468.00	101.307
469.00	97.278
470.00	96.768
471.00	98.181
472.00	99.237
473.00	97.960
474.00	97.574
475.00	99.052
476.00	97.077
477.00	99.541
478.00	98.472
479.00	97.280
480.00	97.289
481.00	98.083
482.00	100.644
483.00	97.605
484.00	97.278
485.00	96.886
486.00	98.249
487.00	99.038
488.00	97.665
489.00	97.718
490.00	97.553
491.00	98.946
492.00	98.433
493.00	98.860
494.00	98.429
495.00	97.496
496.00	98.766
497.00	97.053
498.00	99.248
499.00	98.226
500.00	97.590
501.00	96.871
502.00	98.350
503.00	98.288
504.00	98.823
505.00	98.779
506.00	98.176
507.00	98.451
508.00	97.733
509.00	99.099
510.00	99.048
511.00	98.229
512.00	98.748
513.00	98.005
514.00	98.652
515.00	97.853
516.00	98.518
517.00	98.718
518.00	98.382
519.00	98.445
520.00	98.300
521.00	97.752
522.00	98.069
523.00	98.510
524.00	98.430
525.00	98.314
526.00	99.148
527.00	98.281
528.00	98.382
529.00	99.034
530.00	98.710
531.00	98.213
532.00	99.007
533.00	99.364
534.00	99.485
535.00	98.729
536.00	98.625
537.00	98.989
538.00	99.023
539.00	98.580
540.00	98.972
541.00	98.626
542.00	98.576
543.00	99.060
544.00	98.706
545.00	99.492
546.00	99.027
547.00	98.612
548.00	98.247
549.00	97.957
550.00	98.804
551.00	98.517
552.00	97.804
553.00	98.682
554.00	98.464
555.00	98.250
556.00	97.657
557.00	98.702
558.00	98.200
559.00	98.646
560.00	98.082
561.00	98.352
562.00	98.750
563.00	98.510
564.00	98.171
565.00	98.081
566.00	99.161
567.00	98.953
568.00	98.691
569.00	98.503
570.00	99.478
571.00	98.854
572.00	99.039
573.00	98.261
574.00	98.770
575.00	99.290
576.00	99.111
577.00	99.272
578.00	98.639
579.00	98.805
580.00	98.500
581.00	98.819
582.00	98.951
583.00	98.786
584.00	98.926
585.00	98.267
586.00	98.391
587.00	98.764
588.00	98.441
589.00	99.314
590.00	98.189
591.00	98.701
592.00	99.104
593.00	98.108
594.00	98.493
595.00	99.087
596.00	98.993
597.00	99.083
598.00	98.682
599.00	98.780
600.00	99.080
601.00	98.811
602.00	98.909
603.00	99.133
604.00	99.579
605.00	98.757
606.00	98.811
607.00	98.467
608.00	99.547
609.00	99.181
610.00	98.896
611.00	98.723
612.00	98.546
613.00	98.603
614.00	99.123
615.00	98.297
616.00	98.808
617.00	98.485
618.00	98.827
619.00	98.486
620.00	98.339
621.00	98.440
622.00	98.373
623.00	98.273
624.00	98.758
625.00	98.869
626.00	99.267
627.00	98.534
628.00	98.105
629.00	99.058
630.00	98.357
631.00	98.624
632.00	98.794
633.00	98.272
634.00	98.318
635.00	99.005
636.00	98.705
637.00	98.331
638.00	98.618
639.00	98.193
640.00	98.077
641.00	98.342
642.00	98.466
643.00	98.373
644.00	98.168
645.00	98.081
646.00	98.408
647.00	98.863
648.00	97.964
649.00	98.127
650.00	98.111
651.00	97.893
652.00	98.336
653.00	98.511
654.00	98.511
655.00	97.925
656.00	98.250
657.00	98.231
658.00	98.072
659.00	97.872
660.00	97.970
661.00	98.304
662.00	98.102
663.00	98.047
664.00	97.922
665.00	97.628
666.00	98.076
667.00	97.862
668.00	98.235
669.00	97.974
670.00	98.440
671.00	97.648
672.00	97.722
673.00	97.888
674.00	98.065
675.00	97.689
676.00	98.029
677.00	97.498
678.00	97.601
679.00	97.471
680.00	98.009
681.00	97.285
682.00	97.822
683.00	97.433
684.00	98.074
685.00	98.003
686.00	97.909
687.00	97.651
688.00	97.694
689.00	97.355
690.00	97.660
691.00	97.558
692.00	97.707
693.00	97.364
694.00	97.285
695.00	97.945
696.00	98.197
697.00	97.399
698.00	97.126
699.00	98.018
700.00	97.798
701.00	97.479
702.00	97.756
703.00	98.094
704.00	96.682
705.00	97.616
706.00	97.519
707.00	97.345
708.00	97.704
709.00	97.822
710.00	98.269
711.00	97.467
712.00	98.251
713.00	97.759
714.00	96.876
715.00	97.577
716.00	98.229
717.00	97.324
718.00	97.342
719.00	97.293
720.00	98.115
721.00	97.718
722.00	97.111
723.00	97.723
724.00	97.638
725.00	97.976
726.00	97.708
727.00	96.878
728.00	97.291
729.00	97.247
730.00	97.327
731.00	97.803
732.00	97.910
733.00	97.538
734.00	98.118
735.00	97.518
736.00	97.522
737.00	97.250
738.00	97.487
739.00	97.773
740.00	97.923
741.00	97.991
742.00	97.639
743.00	97.344
744.00	97.290
745.00	97.468
746.00	97.594
747.00	97.573
748.00	98.068
749.00	97.984
750.00	97.648
751.00	97.479
752.00	97.586
753.00	97.787
754.00	97.562
755.00	97.127
756.00	96.839
757.00	97.664
758.00	96.524
759.00	97.637
760.00	97.718
761.00	96.715
762.00	97.363
763.00	97.266
764.00	97.340
765.00	97.270
766.00	97.390
767.00	97.343
768.00	96.847
769.00	97.679
770.00	97.332
771.00	96.339
772.00	97.445
773.00	97.506
774.00	96.465
775.00	97.158
776.00	97.127
777.00	96.420
778.00	96.197
779.00	97.414
780.00	97.295
781.00	96.190
782.00	97.305
783.00	97.580
784.00	96.722
785.00	96.296
786.00	96.992
787.00	97.312
788.00	97.457
789.00	97.083
790.00	96.450
791.00	96.251
792.00	96.765
793.00	97.239
794.00	96.473
795.00	96.653
796.00	96.729
797.00	97.766
798.00	97.086
799.00	96.381
800.00	97.693
801.00	97.164
802.00	96.765
803.00	97.753
804.00	96.848
805.00	96.604
806.00	96.310
807.00	96.229
808.00	96.577
809.00	97.512
810.00	96.789
811.00	97.354
812.00	96.511
813.00	97.095
814.00	96.883
815.00	96.352
816.00	97.185
817.00	96.837
818.00	97.281
819.00	96.120
820.00	95.681
821.00	96.433
822.00	96.295
823.00	97.061
824.00	96.331
825.00	96.737
826.00	96.147
827.00	97.987
828.00	96.790
829.00	95.755
830.00	96.962
831.00	96.292
832.00	96.401
833.00	95.826
834.00	96.093
835.00	96.005
836.00	96.522
837.00	96.684
838.00	96.963
839.00	95.793
840.00	95.771
841.00	96.887
842.00	95.860
843.00	96.417
844.00	96.832
845.00	95.656
846.00	97.357
847.00	96.460
848.00	95.526
849.00	95.745
850.00	95.164
851.00	94.637
852.00	95.533
853.00	95.313
854.00	96.037
855.00	95.829
856.00	96.063
857.00	96.242
858.00	96.199
859.00	95.977
860.00	95.417
861.00	93.924
862.00	94.723
863.00	95.216
864.00	95.526
865.00	96.217
866.00	94.159
867.00	94.547
868.00	94.149
869.00	95.314
870.00	95.656
871.00	94.851
872.00	94.723
873.00	95.454
874.00	94.315
875.00	94.766
876.00	94.066
877.00	95.467
878.00	94.862
879.00	95.080
880.00	97.190
881.00	94.998
882.00	94.330
883.00	94.355
884.00	95.807
885.00	95.664
886.00	95.446
887.00	96.599
888.00	93.191
889.00	91.828
890.00	93.528
891.00	95.108
892.00	94.775
893.00	92.680
894.00	95.556
895.00	95.269
896.00	93.506
897.00	94.098
898.00	95.441
899.00	92.801
900.00	92.136
901.00	94.354
902.00	93.814
903.00	94.497
904.00	94.156
905.00	92.344
906.00	95.680
907.00	93.573
908.00	93.076
909.00	93.792
910.00	96.068
911.00	94.121
912.00	91.420
913.00	94.673
914.00	94.449
915.00	92.086
916.00	93.751
917.00	94.618
918.00	94.488
919.00	94.267
920.00	94.140
921.00	93.956
922.00	92.511
923.00	94.855
924.00	96.476
925.00	96.601
926.00	96.899
927.00	94.199
928.00	95.076
929.00	92.573
930.00	92.405
931.00	94.862
932.00	91.682
933.00	90.773
934.00	95.006
935.00	95.561
936.00	90.532
937.00	97.238
938.00	91.945
939.00	93.706
940.00	93.498
941.00	94.156
942.00	92.060
943.00	94.169
944.00	98.728
945.00	92.265
946.00	96.478
947.00	92.984
948.00	89.925
949.00	91.946
950.00	89.201
951.00	88.584
952.00	94.020
953.00	92.863
954.00	95.089
955.00	95.831
956.00	91.327
957.00	88.447
958.00	99.217
959.00	96.758
960.00	89.301
961.00	90.193
962.00	89.318
963.00	100.914
964.00	88.750
965.00	90.619
966.00	99.717
967.00	96.743
968.00	98.089
969.00	89.493
970.00	92.583
971.00	91.049
972.00	96.478
973.00	89.510
974.00	92.153
975.00	92.682
976.00	94.180
977.00	91.444
978.00	85.378
979.00	93.131
980.00	92.141
981.00	91.389
982.00	92.335
983.00	94.299
984.00	92.289
985.00	90.405
986.00	90.735
987.00	104.324
988.00	73.624
989.00	94.922
990.00	95.540
991.00	98.316
992.00	82.784
993.00	98.527
994.00	90.897
995.00	96.637
996.00	94.808
997.00	91.412
998.00	92.559
999.00	97.988
1000.00	98.424
>>>>>End Processed Spectral Data<<<<<
