SpectraSuite Data File
++++++++++++++++++++++++++++++++++++
Date: Thu Nov 20 12:21:04 CET 2014
User: admin
Dark Spectrum Present: Yes
Reference Spectrum Present: Yes
Number of Sampled Component Spectra: 1
Spectrometers: USB2G49547
Integration Time (usec): 300000 (USB2G49547)
Spectra Averaged: 8 (USB2G49547)
Boxcar Smoothing: 0 (USB2G49547)
Correct for Electrical Dark: No (USB2G49547)
Strobe/Lamp Enabled: No (USB2G49547)
Correct for Detector Non-linearity: No (USB2G49547)
Correct for Stray Light: No (USB2G49547)
Number of Pixels in Processed Spectrum: 651
>>>>>Begin Processed Spectral Data<<<<<
350.00	124.930
351.00	85.228
352.00	86.838
353.00	108.687
354.00	96.133
355.00	81.374
356.00	174.361
357.00	70.968
358.00	187.832
359.00	111.069
360.00	121.568
361.00	164.741
362.00	158.829
363.00	106.297
364.00	146.668
365.00	149.186
366.00	88.784
367.00	43.043
368.00	92.829
369.00	85.862
370.00	117.745
371.00	94.823
372.00	98.657
373.00	92.951
374.00	97.315
375.00	104.013
376.00	121.960
377.00	113.758
378.00	115.089
379.00	340.490
380.00	127.842
381.00	129.113
382.00	112.782
383.00	112.251
384.00	82.816
385.00	86.511
386.00	135.372
387.00	81.991
388.00	65.035
389.00	69.561
390.00	65.985
391.00	65.875
392.00	66.300
393.00	112.018
394.00	137.384
395.00	118.192
396.00	107.176
397.00	111.989
398.00	108.220
399.00	77.800
400.00	127.572
401.00	151.206
402.00	119.327
403.00	81.316
404.00	105.844
405.00	104.637
406.00	79.390
407.00	84.188
408.00	124.322
409.00	70.943
410.00	65.354
411.00	94.430
412.00	103.660
413.00	120.870
414.00	98.230
415.00	120.906
416.00	98.529
417.00	112.933
418.00	96.100
419.00	95.360
420.00	88.181
421.00	97.404
422.00	106.619
423.00	110.128
424.00	100.132
425.00	104.578
426.00	95.833
427.00	92.405
428.00	95.358
429.00	95.872
430.00	102.598
431.00	91.035
432.00	107.669
433.00	99.059
434.00	104.852
435.00	92.565
436.00	90.999
437.00	102.473
438.00	96.841
439.00	105.411
440.00	104.798
441.00	98.660
442.00	99.080
443.00	92.884
444.00	100.670
445.00	93.975
446.00	104.136
447.00	102.204
448.00	92.794
449.00	94.655
450.00	96.156
451.00	96.198
452.00	98.256
453.00	97.507
454.00	94.261
455.00	97.143
456.00	100.147
457.00	94.389
458.00	95.280
459.00	96.613
460.00	92.604
461.00	100.205
462.00	98.547
463.00	99.358
464.00	99.090
465.00	99.017
466.00	98.007
467.00	95.476
468.00	98.202
469.00	95.866
470.00	97.618
471.00	95.040
472.00	97.667
473.00	97.142
474.00	96.930
475.00	98.568
476.00	99.015
477.00	101.199
478.00	98.566
479.00	99.411
480.00	97.108
481.00	98.175
482.00	98.508
483.00	97.739
484.00	97.250
485.00	97.593
486.00	98.287
487.00	97.518
488.00	97.972
489.00	97.267
490.00	97.328
491.00	97.823
492.00	97.777
493.00	99.268
494.00	98.145
495.00	97.326
496.00	98.322
497.00	98.134
498.00	98.579
499.00	97.291
500.00	98.304
501.00	96.206
502.00	98.070
503.00	97.500
504.00	97.762
505.00	97.029
506.00	97.519
507.00	97.469
508.00	97.627
509.00	97.855
510.00	97.867
511.00	97.698
512.00	98.011
513.00	97.749
514.00	97.009
515.00	97.236
516.00	97.920
517.00	98.120
518.00	98.040
519.00	98.005
520.00	97.431
521.00	97.856
522.00	98.009
523.00	97.636
524.00	98.072
525.00	97.761
526.00	98.290
527.00	98.182
528.00	97.371
529.00	98.134
530.00	98.287
531.00	98.308
532.00	97.763
533.00	98.350
534.00	97.892
535.00	97.689
536.00	98.486
537.00	98.102
538.00	98.206
539.00	97.538
540.00	97.919
541.00	97.920
542.00	98.108
543.00	97.931
544.00	97.971
545.00	98.111
546.00	98.273
547.00	97.433
548.00	97.702
549.00	97.473
550.00	98.208
551.00	97.737
552.00	97.215
553.00	98.073
554.00	97.537
555.00	97.755
556.00	97.148
557.00	97.318
558.00	97.434
559.00	97.449
560.00	97.684
561.00	97.928
562.00	97.884
563.00	97.491
564.00	96.893
565.00	97.770
566.00	97.966
567.00	98.066
568.00	97.764
569.00	97.832
570.00	97.978
571.00	98.036
572.00	97.961
573.00	97.295
574.00	97.904
575.00	97.586
576.00	98.700
577.00	98.339
578.00	98.103
579.00	97.783
580.00	97.709
581.00	97.463
582.00	97.861
583.00	97.746
584.00	97.964
585.00	97.830
586.00	97.652
587.00	97.703
588.00	97.819
589.00	97.783
590.00	97.803
591.00	98.219
592.00	98.296
593.00	97.795
594.00	97.801
595.00	97.983
596.00	97.522
597.00	97.964
598.00	97.235
599.00	97.587
600.00	97.993
601.00	97.665
602.00	97.824
603.00	97.903
604.00	98.586
605.00	97.906
606.00	97.839
607.00	98.086
608.00	97.772
609.00	97.676
610.00	97.702
611.00	97.769
612.00	97.838
613.00	97.015
614.00	97.859
615.00	97.992
616.00	97.387
617.00	97.896
618.00	97.729
619.00	97.045
620.00	97.570
621.00	97.237
622.00	97.301
623.00	97.794
624.00	97.431
625.00	97.977
626.00	97.982
627.00	97.188
628.00	97.226
629.00	97.695
630.00	97.344
631.00	97.573
632.00	97.536
633.00	97.092
634.00	97.450
635.00	97.948
636.00	97.587
637.00	97.678
638.00	97.646
639.00	97.601
640.00	97.232
641.00	97.028
642.00	97.352
643.00	97.104
644.00	97.154
645.00	97.093
646.00	97.173
647.00	97.470
648.00	96.957
649.00	96.946
650.00	97.269
651.00	97.343
652.00	97.098
653.00	97.614
654.00	97.357
655.00	97.048
656.00	97.324
657.00	97.166
658.00	97.149
659.00	96.812
660.00	97.489
661.00	97.360
662.00	97.109
663.00	97.051
664.00	97.124
665.00	96.865
666.00	97.378
667.00	96.497
668.00	96.889
669.00	96.947
670.00	97.444
671.00	96.686
672.00	97.023
673.00	96.817
674.00	97.225
675.00	96.897
676.00	96.844
677.00	96.498
678.00	97.147
679.00	96.998
680.00	97.006
681.00	96.705
682.00	97.027
683.00	96.605
684.00	96.958
685.00	96.860
686.00	96.315
687.00	96.804
688.00	96.461
689.00	96.564
690.00	97.182
691.00	96.885
692.00	97.132
693.00	96.604
694.00	96.669
695.00	96.716
696.00	97.061
697.00	96.651
698.00	96.287
699.00	97.061
700.00	96.441
701.00	96.714
702.00	96.216
703.00	96.924
704.00	96.452
705.00	96.834
706.00	96.174
707.00	96.114
708.00	96.465
709.00	96.883
710.00	96.870
711.00	96.206
712.00	96.689
713.00	96.278
714.00	96.206
715.00	96.383
716.00	97.185
717.00	96.126
718.00	96.573
719.00	96.745
720.00	96.963
721.00	96.636
722.00	96.531
723.00	96.620
724.00	96.767
725.00	96.737
726.00	96.105
727.00	95.900
728.00	96.596
729.00	95.895
730.00	96.262
731.00	96.556
732.00	96.816
733.00	96.365
734.00	96.798
735.00	96.182
736.00	96.361
737.00	95.937
738.00	96.128
739.00	96.013
740.00	96.280
741.00	96.239
742.00	96.309
743.00	95.958
744.00	96.270
745.00	95.983
746.00	96.471
747.00	95.733
748.00	96.414
749.00	96.042
750.00	96.307
751.00	96.270
752.00	96.548
753.00	96.124
754.00	96.368
755.00	96.355
756.00	96.280
757.00	96.380
758.00	95.970
759.00	95.453
760.00	95.868
761.00	95.685
762.00	95.818
763.00	95.508
764.00	96.051
765.00	95.393
766.00	95.480
767.00	95.644
768.00	95.634
769.00	95.750
770.00	95.858
771.00	95.057
772.00	95.750
773.00	95.717
774.00	95.524
775.00	96.204
776.00	95.801
777.00	95.500
778.00	95.513
779.00	95.668
780.00	96.072
781.00	95.548
782.00	96.262
783.00	95.829
784.00	95.477
785.00	95.117
786.00	95.203
787.00	96.309
788.00	95.523
789.00	96.014
790.00	94.825
791.00	95.444
792.00	96.112
793.00	95.081
794.00	95.277
795.00	95.600
796.00	95.762
797.00	96.295
798.00	95.912
799.00	95.563
800.00	96.034
801.00	95.628
802.00	94.655
803.00	95.665
804.00	95.753
805.00	95.535
806.00	95.266
807.00	95.046
808.00	95.577
809.00	95.398
810.00	96.009
811.00	95.966
812.00	94.171
813.00	95.344
814.00	94.805
815.00	95.258
816.00	94.899
817.00	95.209
818.00	95.333
819.00	95.898
820.00	95.734
821.00	95.818
822.00	94.902
823.00	95.358
824.00	95.586
825.00	94.832
826.00	96.621
827.00	96.043
828.00	94.730
829.00	94.129
830.00	95.856
831.00	94.741
832.00	94.766
833.00	95.945
834.00	95.294
835.00	96.404
836.00	95.378
837.00	95.432
838.00	94.202
839.00	94.594
840.00	94.856
841.00	94.912
842.00	94.092
843.00	95.188
844.00	96.075
845.00	94.575
846.00	96.385
847.00	94.791
848.00	95.166
849.00	94.450
850.00	93.906
851.00	93.866
852.00	95.210
853.00	94.986
854.00	96.050
855.00	94.550
856.00	95.505
857.00	95.048
858.00	95.145
859.00	93.226
860.00	94.281
861.00	93.651
862.00	94.956
863.00	94.780
864.00	94.701
865.00	95.239
866.00	94.044
867.00	93.721
868.00	93.642
869.00	94.591
870.00	94.783
871.00	93.112
872.00	95.638
873.00	94.445
874.00	93.786
875.00	94.145
876.00	93.193
877.00	93.663
878.00	93.560
879.00	93.060
880.00	96.821
881.00	93.170
882.00	94.413
883.00	92.676
884.00	95.336
885.00	96.593
886.00	95.092
887.00	93.343
888.00	94.293
889.00	92.205
890.00	94.520
891.00	93.798
892.00	91.096
893.00	92.034
894.00	94.669
895.00	93.085
896.00	93.133
897.00	93.624
898.00	96.218
899.00	93.156
900.00	92.065
901.00	92.735
902.00	91.882
903.00	92.897
904.00	94.754
905.00	91.243
906.00	94.372
907.00	94.477
908.00	94.108
909.00	91.692
910.00	92.838
911.00	95.398
912.00	93.358
913.00	92.348
914.00	93.936
915.00	93.224
916.00	93.670
917.00	91.622
918.00	91.796
919.00	93.552
920.00	89.787
921.00	93.825
922.00	92.743
923.00	92.580
924.00	91.280
925.00	95.197
926.00	93.953
927.00	90.575
928.00	94.779
929.00	92.036
930.00	89.604
931.00	96.235
932.00	90.805
933.00	91.314
934.00	92.723
935.00	94.721
936.00	90.133
937.00	95.564
938.00	92.287
939.00	94.214
940.00	89.562
941.00	92.027
942.00	88.935
943.00	93.282
944.00	97.073
945.00	94.833
946.00	98.807
947.00	90.631
948.00	85.272
949.00	90.451
950.00	94.199
951.00	90.491
952.00	92.743
953.00	94.079
954.00	88.746
955.00	91.199
956.00	87.584
957.00	92.364
958.00	90.356
959.00	95.632
960.00	87.616
961.00	88.938
962.00	90.801
963.00	94.319
964.00	90.867
965.00	93.504
966.00	92.918
967.00	93.317
968.00	84.975
969.00	101.101
970.00	91.476
971.00	85.806
972.00	96.683
973.00	102.135
974.00	79.696
975.00	84.395
976.00	97.097
977.00	86.997
978.00	87.416
979.00	84.990
980.00	86.989
981.00	92.933
982.00	85.943
983.00	91.333
984.00	95.871
985.00	87.429
986.00	88.148
987.00	99.576
988.00	88.760
989.00	94.059
990.00	95.023
991.00	82.491
992.00	92.458
993.00	95.016
994.00	89.720
995.00	95.382
996.00	102.723
997.00	85.807
998.00	95.275
999.00	85.851
1000.00	101.980
>>>>>End Processed Spectral Data<<<<<
