SpectraSuite Data File
++++++++++++++++++++++++++++++++++++
Date: Thu Nov 20 12:28:56 CET 2014
User: admin
Spectrometer Serial Number: USB2G49547
Spectrometer Channel: 0
Integration Time (usec): 120000
Spectra Averaged: 8
Boxcar Smoothing: 0
Correct for Electrical Dark: No
Strobe/Lamp Enabled: No
Correct for Detector Non-linearity: No
Correct for Stray Light: No
Number of Pixels in Spectrum: 651
>>>>>Begin Spectral Data<<<<<
350.00	219.763
351.00	219.740
352.00	220.292
353.00	218.540
354.00	219.333
355.00	219.000
356.00	220.739
357.00	220.261
358.00	217.555
359.00	220.001
360.00	219.585
361.00	222.109
362.00	219.900
363.00	220.375
364.00	219.641
365.00	220.197
366.00	219.134
367.00	221.452
368.00	222.491
369.00	220.533
370.00	220.628
371.00	221.681
372.00	221.598
373.00	220.747
374.00	222.160
375.00	220.945
376.00	220.461
377.00	221.936
378.00	219.293
379.00	221.367
380.00	221.806
381.00	221.626
382.00	224.208
383.00	220.071
384.00	222.838
385.00	227.976
386.00	222.171
387.00	222.218
388.00	223.373
389.00	222.211
390.00	222.997
391.00	223.705
392.00	222.336
393.00	223.872
394.00	224.218
395.00	223.601
396.00	224.743
397.00	224.269
398.00	226.277
399.00	225.675
400.00	225.732
401.00	226.795
402.00	226.991
403.00	229.355
404.00	225.437
405.00	226.666
406.00	227.019
407.00	227.873
408.00	231.580
409.00	228.169
410.00	230.020
411.00	229.835
412.00	231.777
413.00	229.878
414.00	232.113
415.00	232.457
416.00	232.885
417.00	235.105
418.00	232.729
419.00	235.174
420.00	234.625
421.00	236.838
422.00	236.110
423.00	234.154
424.00	237.517
425.00	239.807
426.00	240.179
427.00	243.462
428.00	239.886
429.00	244.627
430.00	244.055
431.00	246.235
432.00	249.445
433.00	255.115
434.00	253.011
435.00	257.091
436.00	255.479
437.00	257.172
438.00	261.489
439.00	262.062
440.00	267.745
441.00	265.237
442.00	268.533
443.00	269.940
444.00	290.196
445.00	277.198
446.00	276.249
447.00	277.084
448.00	281.392
449.00	285.101
450.00	290.147
451.00	292.015
452.00	294.247
453.00	295.843
454.00	299.607
455.00	302.227
456.00	313.093
457.00	315.096
458.00	320.729
459.00	322.615
460.00	325.687
461.00	331.903
462.00	335.719
463.00	343.198
464.00	350.361
465.00	355.376
466.00	364.561
467.00	371.091
468.00	381.149
469.00	395.802
470.00	398.979
471.00	412.080
472.00	423.440
473.00	433.050
474.00	441.404
475.00	464.302
476.00	479.516
477.00	500.809
478.00	524.162
479.00	534.423
480.00	559.932
481.00	581.489
482.00	609.602
483.00	633.320
484.00	675.455
485.00	684.415
486.00	712.243
487.00	733.953
488.00	770.244
489.00	802.506
490.00	828.911
491.00	881.408
492.00	912.499
493.00	938.650
494.00	983.432
495.00	1048.238
496.00	1063.016
497.00	1105.975
498.00	1090.580
499.00	1165.902
500.00	1193.918
501.00	1222.057
502.00	1282.082
503.00	1367.392
504.00	1444.382
505.00	1460.016
506.00	1492.476
507.00	1512.133
508.00	1526.997
509.00	1582.430
510.00	1620.333
511.00	1685.980
512.00	1691.200
513.00	1753.639
514.00	1745.731
515.00	1801.433
516.00	1842.936
517.00	1866.934
518.00	1928.148
519.00	1975.763
520.00	2027.609
521.00	2066.980
522.00	2082.549
523.00	2093.331
524.00	2141.498
525.00	2210.267
526.00	2229.690
527.00	2317.384
528.00	2340.732
529.00	2352.227
530.00	2384.778
531.00	2429.539
532.00	2458.490
533.00	2496.101
534.00	2535.688
535.00	2583.865
536.00	2551.780
537.00	2608.888
538.00	2663.575
539.00	2672.390
540.00	2767.946
541.00	2803.171
542.00	2805.051
543.00	2865.289
544.00	2898.269
545.00	2920.343
546.00	2869.647
547.00	2934.131
548.00	2945.153
549.00	3001.223
550.00	3034.538
551.00	3020.929
552.00	3069.414
553.00	3066.955
554.00	3074.713
555.00	3167.376
556.00	3144.505
557.00	3190.444
558.00	3146.991
559.00	3211.041
560.00	3222.520
561.00	3230.459
562.00	3249.691
563.00	3211.129
564.00	3283.131
565.00	3282.937
566.00	3298.115
567.00	3321.798
568.00	3306.709
569.00	3299.244
570.00	3349.079
571.00	3376.576
572.00	3395.087
573.00	3397.969
574.00	3378.434
575.00	3435.693
576.00	3400.992
577.00	3402.312
578.00	3426.781
579.00	3433.852
580.00	3505.172
581.00	3495.262
582.00	3562.429
583.00	3530.960
584.00	3548.753
585.00	3617.310
586.00	3599.744
587.00	3600.068
588.00	3588.257
589.00	3582.485
590.00	3652.699
591.00	3674.873
592.00	3585.765
593.00	3701.002
594.00	3674.045
595.00	3702.515
596.00	3697.555
597.00	3720.523
598.00	3708.674
599.00	3694.445
600.00	3766.803
601.00	3775.094
602.00	3826.528
603.00	3689.535
604.00	3761.218
605.00	3748.854
606.00	3781.762
607.00	3784.801
608.00	3774.218
609.00	3742.755
610.00	3754.726
611.00	3714.765
612.00	3683.770
613.00	3734.935
614.00	3765.417
615.00	3766.490
616.00	3808.610
617.00	3717.585
618.00	3713.776
619.00	3729.351
620.00	3730.437
621.00	3729.131
622.00	3747.851
623.00	3706.075
624.00	3676.828
625.00	3704.340
626.00	3702.551
627.00	3707.599
628.00	3701.783
629.00	3775.694
630.00	3729.377
631.00	3703.684
632.00	3718.514
633.00	3707.527
634.00	3680.392
635.00	3676.814
636.00	3658.950
637.00	3733.118
638.00	3619.054
639.00	3676.045
640.00	3649.357
641.00	3625.332
642.00	3669.099
643.00	3665.086
644.00	3684.195
645.00	3674.732
646.00	3717.281
647.00	3628.352
648.00	3704.711
649.00	3646.056
650.00	3665.752
651.00	3661.986
652.00	3584.702
653.00	3614.315
654.00	3683.974
655.00	3706.236
656.00	3614.075
657.00	3627.341
658.00	3559.406
659.00	3634.920
660.00	3532.632
661.00	3499.382
662.00	3501.218
663.00	3436.759
664.00	3573.803
665.00	3565.671
666.00	3453.956
667.00	3494.040
668.00	3422.767
669.00	3464.598
670.00	3439.727
671.00	3441.351
672.00	3355.111
673.00	3345.279
674.00	3367.680
675.00	3332.391
676.00	3250.910
677.00	3237.526
678.00	3200.330
679.00	3223.520
680.00	3128.259
681.00	3184.697
682.00	3163.521
683.00	3109.441
684.00	3115.034
685.00	3121.578
686.00	3043.694
687.00	3107.122
688.00	3065.402
689.00	2982.442
690.00	2906.246
691.00	2951.748
692.00	2944.015
693.00	2934.043
694.00	2919.409
695.00	2905.774
696.00	2870.894
697.00	2855.914
698.00	2807.918
699.00	2800.895
700.00	2730.461
701.00	2731.601
702.00	2703.118
703.00	2662.566
704.00	2669.316
705.00	2611.344
706.00	2624.928
707.00	2569.153
708.00	2592.401
709.00	2542.594
710.00	2551.259
711.00	2500.931
712.00	2476.285
713.00	2480.351
714.00	2433.626
715.00	2456.739
716.00	2448.162
717.00	2351.940
718.00	2337.483
719.00	2348.422
720.00	2309.792
721.00	2357.089
722.00	2294.979
723.00	2268.039
724.00	2247.622
725.00	2237.747
726.00	2253.252
727.00	2210.558
728.00	2182.121
729.00	2185.423
730.00	2138.907
731.00	2105.031
732.00	2128.982
733.00	2089.141
734.00	2085.394
735.00	2075.300
736.00	2050.134
737.00	1979.611
738.00	2021.802
739.00	2008.700
740.00	1942.518
741.00	1932.355
742.00	1929.523
743.00	1851.750
744.00	1867.878
745.00	1842.314
746.00	1798.503
747.00	1788.145
748.00	1699.502
749.00	1704.221
750.00	1700.715
751.00	1739.592
752.00	1688.055
753.00	1676.052
754.00	1664.773
755.00	1627.790
756.00	1610.470
757.00	1584.088
758.00	1569.145
759.00	1557.760
760.00	1536.509
761.00	1509.548
762.00	1483.762
763.00	1487.168
764.00	1467.340
765.00	1456.923
766.00	1404.088
767.00	1391.608
768.00	1349.910
769.00	1343.923
770.00	1327.065
771.00	1313.084
772.00	1301.872
773.00	1279.582
774.00	1271.936
775.00	1223.859
776.00	1229.118
777.00	1218.461
778.00	1172.945
779.00	1195.865
780.00	1190.761
781.00	1172.233
782.00	1174.955
783.00	1151.449
784.00	1155.675
785.00	1130.589
786.00	1136.089
787.00	1117.747
788.00	1134.635
789.00	1116.039
790.00	1139.790
791.00	1107.575
792.00	1106.924
793.00	1103.808
794.00	1112.678
795.00	1105.373
796.00	1066.594
797.00	1079.053
798.00	1071.039
799.00	1047.724
800.00	1052.103
801.00	1023.120
802.00	1010.936
803.00	988.569
804.00	989.281
805.00	960.868
806.00	947.766
807.00	929.175
808.00	900.516
809.00	912.146
810.00	897.853
811.00	888.557
812.00	881.229
813.00	864.665
814.00	869.460
815.00	853.984
816.00	849.007
817.00	842.805
818.00	828.922
819.00	813.814
820.00	821.440
821.00	785.826
822.00	769.067
823.00	765.848
824.00	759.099
825.00	743.275
826.00	743.160
827.00	725.358
828.00	727.668
829.00	697.852
830.00	699.619
831.00	682.616
832.00	680.133
833.00	667.338
834.00	654.432
835.00	642.329
836.00	648.850
837.00	630.124
838.00	623.870
839.00	615.993
840.00	613.851
841.00	593.945
842.00	581.936
843.00	580.074
844.00	570.982
845.00	570.002
846.00	554.391
847.00	567.671
848.00	560.175
849.00	551.553
850.00	537.864
851.00	542.761
852.00	537.982
853.00	521.310
854.00	514.172
855.00	500.862
856.00	508.180
857.00	505.603
858.00	495.551
859.00	491.630
860.00	493.000
861.00	480.590
862.00	475.751
863.00	473.293
864.00	466.725
865.00	459.834
866.00	454.868
867.00	454.042
868.00	439.028
869.00	448.641
870.00	434.882
871.00	437.600
872.00	430.127
873.00	430.225
874.00	423.795
875.00	420.758
876.00	411.279
877.00	410.662
878.00	409.895
879.00	409.042
880.00	404.139
881.00	397.753
882.00	394.810
883.00	394.491
884.00	387.286
885.00	382.512
886.00	381.904
887.00	385.633
888.00	381.421
889.00	381.086
890.00	373.244
891.00	376.224
892.00	368.675
893.00	365.613
894.00	365.190
895.00	365.164
896.00	367.289
897.00	361.791
898.00	359.873
899.00	358.383
900.00	358.003
901.00	359.179
902.00	351.887
903.00	348.620
904.00	348.452
905.00	351.525
906.00	348.514
907.00	348.704
908.00	348.599
909.00	342.039
910.00	341.260
911.00	331.434
912.00	328.640
913.00	327.880
914.00	333.510
915.00	326.619
916.00	324.485
917.00	322.339
918.00	315.928
919.00	312.273
920.00	309.378
921.00	308.251
922.00	307.609
923.00	306.558
924.00	298.873
925.00	296.847
926.00	292.774
927.00	294.330
928.00	290.334
929.00	285.431
930.00	287.259
931.00	283.410
932.00	281.682
933.00	280.039
934.00	276.591
935.00	278.667
936.00	276.000
937.00	274.844
938.00	270.963
939.00	273.430
940.00	269.292
941.00	267.989
942.00	264.222
943.00	263.178
944.00	265.267
945.00	265.469
946.00	264.250
947.00	260.095
948.00	260.499
949.00	259.239
950.00	255.314
951.00	254.627
952.00	252.673
953.00	251.176
954.00	252.557
955.00	252.047
956.00	251.985
957.00	248.804
958.00	248.374
959.00	247.567
960.00	246.861
961.00	245.142
962.00	243.937
963.00	250.059
964.00	244.138
965.00	244.619
966.00	241.923
967.00	240.924
968.00	241.048
969.00	238.837
970.00	238.788
971.00	239.104
972.00	237.638
973.00	237.850
974.00	236.613
975.00	236.603
976.00	234.325
977.00	234.555
978.00	233.553
979.00	233.411
980.00	235.607
981.00	232.833
982.00	232.159
983.00	231.402
984.00	232.617
985.00	230.789
986.00	230.477
987.00	231.797
988.00	231.535
989.00	228.624
990.00	231.525
991.00	228.525
992.00	227.907
993.00	228.670
994.00	226.576
995.00	229.153
996.00	227.185
997.00	226.333
998.00	223.353
999.00	225.391
1000.00	225.230
>>>>>End Spectral Data<<<<<
