SpectraSuite Data File
++++++++++++++++++++++++++++++++++++
Date: Thu Nov 20 12:33:51 CET 2014
User: admin
Dark Spectrum Present: Yes
Reference Spectrum Present: Yes
Number of Sampled Component Spectra: 1
Spectrometers: USB2G49547
Integration Time (usec): 120000 (USB2G49547)
Spectra Averaged: 8 (USB2G49547)
Boxcar Smoothing: 0 (USB2G49547)
Correct for Electrical Dark: No (USB2G49547)
Strobe/Lamp Enabled: No (USB2G49547)
Correct for Detector Non-linearity: No (USB2G49547)
Correct for Stray Light: No (USB2G49547)
Number of Pixels in Processed Spectrum: 651
>>>>>Begin Processed Spectral Data<<<<<
350.00	81.850
351.00	124.633
352.00	97.201
353.00	116.095
354.00	130.962
355.00	92.010
356.00	34.128
357.00	138.375
358.00	105.807
359.00	76.330
360.00	119.911
361.00	259.424
362.00	83.777
363.00	123.603
364.00	385.882
365.00	123.863
366.00	112.000
367.00	74.804
368.00	81.893
369.00	84.454
370.00	151.937
371.00	84.555
372.00	74.820
373.00	119.355
374.00	85.847
375.00	129.485
376.00	137.777
377.00	95.319
378.00	56.301
379.00	96.959
380.00	81.416
381.00	515.972
382.00	100.848
383.00	79.678
384.00	95.898
385.00	93.376
386.00	78.776
387.00	138.278
388.00	103.354
389.00	123.216
390.00	93.625
391.00	105.254
392.00	83.091
393.00	112.886
394.00	84.820
395.00	108.064
396.00	88.244
397.00	75.222
398.00	92.271
399.00	93.488
400.00	90.356
401.00	91.992
402.00	80.262
403.00	125.934
404.00	99.234
405.00	127.478
406.00	99.434
407.00	120.469
408.00	91.857
409.00	92.321
410.00	78.564
411.00	104.163
412.00	112.025
413.00	104.346
414.00	99.614
415.00	102.488
416.00	94.461
417.00	82.538
418.00	101.954
419.00	88.323
420.00	83.994
421.00	92.804
422.00	90.801
423.00	93.973
424.00	102.100
425.00	99.287
426.00	87.805
427.00	82.050
428.00	97.879
429.00	105.203
430.00	96.996
431.00	96.821
432.00	103.265
433.00	99.443
434.00	95.265
435.00	94.848
436.00	101.458
437.00	88.273
438.00	93.581
439.00	98.069
440.00	100.622
441.00	91.860
442.00	98.834
443.00	101.737
444.00	97.181
445.00	95.811
446.00	102.081
447.00	97.187
448.00	99.367
449.00	96.661
450.00	102.420
451.00	95.859
452.00	93.596
453.00	102.033
454.00	100.006
455.00	97.552
456.00	103.196
457.00	99.819
458.00	95.974
459.00	100.364
460.00	95.935
461.00	96.230
462.00	97.299
463.00	97.766
464.00	97.633
465.00	97.721
466.00	96.575
467.00	99.970
468.00	100.982
469.00	99.820
470.00	97.548
471.00	97.139
472.00	99.099
473.00	100.463
474.00	99.617
475.00	98.997
476.00	98.055
477.00	99.411
478.00	98.976
479.00	99.745
480.00	99.325
481.00	98.643
482.00	98.152
483.00	98.042
484.00	98.325
485.00	97.300
486.00	97.538
487.00	97.746
488.00	98.563
489.00	98.835
490.00	97.937
491.00	97.869
492.00	98.163
493.00	98.108
494.00	98.296
495.00	98.132
496.00	98.090
497.00	97.652
498.00	97.511
499.00	98.177
500.00	97.928
501.00	97.760
502.00	98.981
503.00	97.624
504.00	98.224
505.00	98.277
506.00	98.485
507.00	98.518
508.00	97.352
509.00	97.435
510.00	98.163
511.00	98.377
512.00	98.064
513.00	97.634
514.00	98.680
515.00	97.852
516.00	98.165
517.00	98.075
518.00	97.715
519.00	97.632
520.00	97.698
521.00	97.888
522.00	98.341
523.00	97.981
524.00	97.959
525.00	98.243
526.00	97.736
527.00	97.807
528.00	98.158
529.00	98.122
530.00	97.978
531.00	97.433
532.00	97.795
533.00	98.069
534.00	98.332
535.00	97.803
536.00	98.387
537.00	98.924
538.00	98.370
539.00	98.500
540.00	97.845
541.00	98.344
542.00	98.048
543.00	98.419
544.00	98.260
545.00	98.288
546.00	98.309
547.00	97.789
548.00	97.695
549.00	97.567
550.00	98.054
551.00	98.550
552.00	98.202
553.00	97.874
554.00	98.113
555.00	98.250
556.00	98.204
557.00	98.049
558.00	97.793
559.00	97.586
560.00	98.538
561.00	98.450
562.00	97.744
563.00	98.096
564.00	97.907
565.00	97.593
566.00	98.091
567.00	98.579
568.00	98.239
569.00	98.158
570.00	98.147
571.00	98.649
572.00	98.540
573.00	98.814
574.00	98.498
575.00	98.262
576.00	98.060
577.00	98.760
578.00	98.379
579.00	98.450
580.00	98.994
581.00	98.450
582.00	98.423
583.00	98.411
584.00	98.700
585.00	97.919
586.00	98.564
587.00	98.417
588.00	98.683
589.00	98.941
590.00	99.167
591.00	98.880
592.00	99.360
593.00	99.215
594.00	99.044
595.00	98.688
596.00	99.198
597.00	99.259
598.00	99.291
599.00	99.257
600.00	99.011
601.00	98.921
602.00	99.272
603.00	99.119
604.00	99.693
605.00	99.538
606.00	99.392
607.00	99.201
608.00	99.142
609.00	99.084
610.00	99.377
611.00	99.337
612.00	98.793
613.00	99.369
614.00	99.135
615.00	99.239
616.00	99.691
617.00	99.488
618.00	99.283
619.00	98.881
620.00	99.152
621.00	99.091
622.00	98.839
623.00	99.097
624.00	99.487
625.00	99.484
626.00	98.888
627.00	99.203
628.00	99.587
629.00	98.942
630.00	98.920
631.00	99.067
632.00	98.889
633.00	99.328
634.00	99.212
635.00	98.900
636.00	99.341
637.00	99.350
638.00	99.021
639.00	99.210
640.00	98.999
641.00	99.714
642.00	98.916
643.00	99.290
644.00	99.051
645.00	99.079
646.00	98.973
647.00	98.536
648.00	98.920
649.00	98.794
650.00	99.129
651.00	98.765
652.00	98.618
653.00	98.834
654.00	98.485
655.00	98.617
656.00	98.492
657.00	99.102
658.00	98.840
659.00	98.800
660.00	98.879
661.00	98.804
662.00	98.665
663.00	99.001
664.00	98.876
665.00	98.332
666.00	98.507
667.00	98.615
668.00	99.064
669.00	98.732
670.00	99.158
671.00	98.503
672.00	98.270
673.00	98.529
674.00	98.094
675.00	98.810
676.00	98.558
677.00	98.800
678.00	98.648
679.00	98.151
680.00	98.597
681.00	98.024
682.00	98.184
683.00	98.406
684.00	97.704
685.00	98.598
686.00	98.546
687.00	97.945
688.00	97.910
689.00	98.493
690.00	98.494
691.00	98.208
692.00	97.944
693.00	97.899
694.00	97.978
695.00	97.978
696.00	98.071
697.00	97.453
698.00	97.863
699.00	98.347
700.00	97.787
701.00	97.973
702.00	97.478
703.00	97.602
704.00	97.402
705.00	97.730
706.00	97.269
707.00	97.036
708.00	96.863
709.00	96.811
710.00	96.897
711.00	97.004
712.00	96.704
713.00	97.284
714.00	96.701
715.00	96.675
716.00	96.929
717.00	95.280
718.00	96.187
719.00	95.998
720.00	95.900
721.00	95.763
722.00	95.460
723.00	95.665
724.00	95.302
725.00	95.151
726.00	95.254
727.00	94.883
728.00	95.705
729.00	95.467
730.00	95.669
731.00	95.355
732.00	95.258
733.00	94.545
734.00	94.530
735.00	94.990
736.00	93.789
737.00	93.969
738.00	92.929
739.00	94.114
740.00	93.469
741.00	93.864
742.00	93.659
743.00	93.479
744.00	92.999
745.00	93.218
746.00	92.708
747.00	92.875
748.00	93.309
749.00	93.036
750.00	92.145
751.00	92.035
752.00	91.048
753.00	91.571
754.00	91.601
755.00	91.640
756.00	91.336
757.00	90.986
758.00	90.598
759.00	91.507
760.00	90.120
761.00	90.194
762.00	90.457
763.00	90.166
764.00	89.322
765.00	88.974
766.00	89.441
767.00	90.190
768.00	89.539
769.00	89.108
770.00	88.456
771.00	88.344
772.00	87.626
773.00	88.125
774.00	88.227
775.00	87.836
776.00	87.642
777.00	87.708
778.00	87.492
779.00	87.494
780.00	86.753
781.00	86.735
782.00	86.944
783.00	86.131
784.00	85.631
785.00	86.008
786.00	85.696
787.00	86.167
788.00	85.970
789.00	85.839
790.00	84.179
791.00	84.583
792.00	85.742
793.00	83.709
794.00	83.206
795.00	83.657
796.00	84.064
797.00	83.112
798.00	83.781
799.00	84.237
800.00	83.344
801.00	82.269
802.00	83.074
803.00	82.631
804.00	82.596
805.00	82.622
806.00	82.380
807.00	82.745
808.00	81.332
809.00	81.062
810.00	82.432
811.00	83.501
812.00	80.924
813.00	81.761
814.00	81.713
815.00	81.501
816.00	80.714
817.00	81.523
818.00	80.884
819.00	81.527
820.00	80.854
821.00	81.592
822.00	81.210
823.00	81.323
824.00	81.058
825.00	80.816
826.00	80.462
827.00	81.382
828.00	81.962
829.00	80.167
830.00	80.948
831.00	81.346
832.00	82.222
833.00	81.197
834.00	80.580
835.00	80.962
836.00	81.796
837.00	81.636
838.00	82.163
839.00	82.386
840.00	81.462
841.00	82.497
842.00	81.940
843.00	81.764
844.00	82.326
845.00	82.184
846.00	83.212
847.00	80.889
848.00	82.610
849.00	82.997
850.00	83.935
851.00	82.898
852.00	83.442
853.00	81.620
854.00	85.165
855.00	84.874
856.00	84.520
857.00	83.977
858.00	84.225
859.00	85.352
860.00	84.239
861.00	84.320
862.00	81.175
863.00	85.830
864.00	85.342
865.00	83.385
866.00	86.044
867.00	86.639
868.00	86.295
869.00	84.307
870.00	85.817
871.00	87.519
872.00	86.503
873.00	87.210
874.00	88.442
875.00	86.315
876.00	85.726
877.00	86.050
878.00	86.729
879.00	88.407
880.00	85.980
881.00	87.269
882.00	87.936
883.00	87.169
884.00	89.104
885.00	86.783
886.00	84.954
887.00	87.757
888.00	90.171
889.00	86.648
890.00	88.577
891.00	89.623
892.00	89.358
893.00	88.297
894.00	90.645
895.00	90.599
896.00	88.810
897.00	93.043
898.00	90.859
899.00	93.174
900.00	91.935
901.00	92.559
902.00	90.445
903.00	91.150
904.00	92.704
905.00	94.684
906.00	90.955
907.00	94.927
908.00	92.086
909.00	89.917
910.00	91.594
911.00	92.227
912.00	95.418
913.00	89.711
914.00	93.022
915.00	93.043
916.00	92.178
917.00	92.869
918.00	93.892
919.00	92.811
920.00	96.471
921.00	93.861
922.00	95.720
923.00	94.980
924.00	92.711
925.00	93.188
926.00	95.254
927.00	95.509
928.00	96.361
929.00	88.536
930.00	90.551
931.00	99.361
932.00	93.717
933.00	98.713
934.00	91.993
935.00	100.695
936.00	96.250
937.00	99.811
938.00	100.459
939.00	94.630
940.00	100.489
941.00	95.961
942.00	94.676
943.00	95.166
944.00	99.129
945.00	97.522
946.00	101.921
947.00	94.251
948.00	94.014
949.00	104.922
950.00	98.874
951.00	92.838
952.00	98.353
953.00	97.764
954.00	95.486
955.00	97.930
956.00	101.123
957.00	95.525
958.00	105.359
959.00	107.747
960.00	91.885
961.00	94.773
962.00	91.110
963.00	110.176
964.00	102.282
965.00	93.040
966.00	102.103
967.00	97.871
968.00	105.547
969.00	104.878
970.00	100.340
971.00	104.986
972.00	102.065
973.00	97.519
974.00	103.268
975.00	84.471
976.00	102.570
977.00	90.669
978.00	114.145
979.00	115.311
980.00	101.181
981.00	84.386
982.00	102.294
983.00	93.242
984.00	97.624
985.00	105.979
986.00	81.858
987.00	116.434
988.00	95.313
989.00	88.629
990.00	89.110
991.00	108.087
992.00	108.423
993.00	92.398
994.00	100.125
995.00	112.134
996.00	99.137
997.00	66.942
998.00	95.722
999.00	115.405
1000.00	104.683
>>>>>End Processed Spectral Data<<<<<
