SpectraSuite Data File
++++++++++++++++++++++++++++++++++++
Date: Thu Nov 20 12:34:55 CET 2014
User: admin
Spectrometer Serial Number: USB2G49547
Spectrometer Channel: 0
Integration Time (usec): 120000
Spectra Averaged: 8
Boxcar Smoothing: 0
Correct for Electrical Dark: No
Strobe/Lamp Enabled: No
Correct for Detector Non-linearity: No
Correct for Stray Light: No
Number of Pixels in Spectrum: 651
>>>>>Begin Spectral Data<<<<<
350.00	219.935
351.00	218.894
352.00	220.310
353.00	222.124
354.00	220.149
355.00	218.443
356.00	220.220
357.00	221.777
358.00	219.812
359.00	218.450
360.00	221.834
361.00	220.660
362.00	220.168
363.00	222.891
364.00	223.188
365.00	222.658
366.00	221.370
367.00	220.553
368.00	221.551
369.00	221.990
370.00	223.506
371.00	222.738
372.00	223.006
373.00	223.139
374.00	223.036
375.00	222.275
376.00	222.485
377.00	223.402
378.00	223.948
379.00	225.052
380.00	223.415
381.00	222.794
382.00	224.751
383.00	223.846
384.00	224.656
385.00	227.042
386.00	225.028
387.00	222.950
388.00	224.203
389.00	225.496
390.00	226.198
391.00	226.321
392.00	224.330
393.00	224.380
394.00	225.339
395.00	226.328
396.00	225.003
397.00	226.931
398.00	227.829
399.00	229.566
400.00	227.291
401.00	227.513
402.00	225.715
403.00	229.879
404.00	225.416
405.00	227.467
406.00	228.169
407.00	229.072
408.00	233.834
409.00	228.893
410.00	231.163
411.00	231.675
412.00	230.742
413.00	233.373
414.00	234.729
415.00	231.293
416.00	234.393
417.00	236.857
418.00	236.044
419.00	237.915
420.00	236.187
421.00	238.760
422.00	237.837
423.00	237.075
424.00	239.232
425.00	241.712
426.00	241.817
427.00	244.539
428.00	243.778
429.00	246.444
430.00	248.516
431.00	247.718
432.00	249.927
433.00	250.908
434.00	253.247
435.00	257.150
436.00	255.985
437.00	261.695
438.00	262.498
439.00	263.021
440.00	265.484
441.00	267.898
442.00	271.369
443.00	271.757
444.00	284.253
445.00	278.348
446.00	280.494
447.00	280.837
448.00	283.874
449.00	287.276
450.00	290.181
451.00	294.038
452.00	296.699
453.00	298.088
454.00	304.175
455.00	305.742
456.00	313.020
457.00	315.338
458.00	320.874
459.00	321.684
460.00	331.219
461.00	334.873
462.00	338.395
463.00	345.009
464.00	352.619
465.00	354.962
466.00	367.160
467.00	372.972
468.00	383.383
469.00	398.810
470.00	403.292
471.00	412.359
472.00	422.925
473.00	437.629
474.00	447.365
475.00	469.298
476.00	484.296
477.00	495.784
478.00	525.652
479.00	537.079
480.00	569.967
481.00	583.440
482.00	615.279
483.00	637.481
484.00	664.078
485.00	683.503
486.00	712.118
487.00	737.705
488.00	769.562
489.00	804.358
490.00	828.184
491.00	882.262
492.00	907.235
493.00	943.239
494.00	995.156
495.00	1051.093
496.00	1064.298
497.00	1112.109
498.00	1098.411
499.00	1156.844
500.00	1194.862
501.00	1224.720
502.00	1283.459
503.00	1374.687
504.00	1429.378
505.00	1456.477
506.00	1488.440
507.00	1506.206
508.00	1534.124
509.00	1596.123
510.00	1630.278
511.00	1682.583
512.00	1698.975
513.00	1767.186
514.00	1757.203
515.00	1788.951
516.00	1840.431
517.00	1861.446
518.00	1920.538
519.00	1979.084
520.00	2032.301
521.00	2082.839
522.00	2088.677
523.00	2084.700
524.00	2135.087
525.00	2209.127
526.00	2229.815
527.00	2301.715
528.00	2340.256
529.00	2339.942
530.00	2372.860
531.00	2428.842
532.00	2468.016
533.00	2510.992
534.00	2550.515
535.00	2582.791
536.00	2578.705
537.00	2610.827
538.00	2655.186
539.00	2692.862
540.00	2751.579
541.00	2798.718
542.00	2839.712
543.00	2846.533
544.00	2878.274
545.00	2902.707
546.00	2879.291
547.00	2946.580
548.00	2920.944
549.00	3017.037
550.00	3017.759
551.00	3001.728
552.00	3084.260
553.00	3055.278
554.00	3088.720
555.00	3145.280
556.00	3147.248
557.00	3191.665
558.00	3147.325
559.00	3216.606
560.00	3205.709
561.00	3229.681
562.00	3238.557
563.00	3228.989
564.00	3283.006
565.00	3284.526
566.00	3278.078
567.00	3331.330
568.00	3317.649
569.00	3318.808
570.00	3364.058
571.00	3399.803
572.00	3380.035
573.00	3408.649
574.00	3394.755
575.00	3454.700
576.00	3406.604
577.00	3434.147
578.00	3464.681
579.00	3467.919
580.00	3548.847
581.00	3541.925
582.00	3552.120
583.00	3537.249
584.00	3555.866
585.00	3660.639
586.00	3572.824
587.00	3613.996
588.00	3607.561
589.00	3591.033
590.00	3658.944
591.00	3678.079
592.00	3608.132
593.00	3691.216
594.00	3683.796
595.00	3709.305
596.00	3699.805
597.00	3711.413
598.00	3686.735
599.00	3671.559
600.00	3752.660
601.00	3740.259
602.00	3807.389
603.00	3698.179
604.00	3758.701
605.00	3757.863
606.00	3803.787
607.00	3812.934
608.00	3800.351
609.00	3756.993
610.00	3773.583
611.00	3745.476
612.00	3703.684
613.00	3746.716
614.00	3753.577
615.00	3790.103
616.00	3835.429
617.00	3741.586
618.00	3694.727
619.00	3744.757
620.00	3740.767
621.00	3755.651
622.00	3750.235
623.00	3710.150
624.00	3700.045
625.00	3727.821
626.00	3695.681
627.00	3714.179
628.00	3721.558
629.00	3792.148
630.00	3713.446
631.00	3729.135
632.00	3749.608
633.00	3748.110
634.00	3724.768
635.00	3698.023
636.00	3653.445
637.00	3729.631
638.00	3608.913
639.00	3658.997
640.00	3644.037
641.00	3645.377
642.00	3654.053
643.00	3672.055
644.00	3684.938
645.00	3652.976
646.00	3707.725
647.00	3609.399
648.00	3669.881
649.00	3651.623
650.00	3688.098
651.00	3650.674
652.00	3573.678
653.00	3639.415
654.00	3667.423
655.00	3712.058
656.00	3609.606
657.00	3646.747
658.00	3591.079
659.00	3614.625
660.00	3566.943
661.00	3520.716
662.00	3475.888
663.00	3483.623
664.00	3551.778
665.00	3525.289
666.00	3442.013
667.00	3463.937
668.00	3406.063
669.00	3455.373
670.00	3410.848
671.00	3449.082
672.00	3415.919
673.00	3364.563
674.00	3374.543
675.00	3353.543
676.00	3272.885
677.00	3260.855
678.00	3186.021
679.00	3226.122
680.00	3173.622
681.00	3162.071
682.00	3148.874
683.00	3081.248
684.00	3112.527
685.00	3092.699
686.00	3014.255
687.00	3089.432
688.00	3072.587
689.00	2987.870
690.00	2919.531
691.00	2954.595
692.00	2945.136
693.00	2921.095
694.00	2946.680
695.00	2914.439
696.00	2911.403
697.00	2837.726
698.00	2834.627
699.00	2816.393
700.00	2725.404
701.00	2732.107
702.00	2756.033
703.00	2664.525
704.00	2674.937
705.00	2645.910
706.00	2606.714
707.00	2590.020
708.00	2620.134
709.00	2563.677
710.00	2552.578
711.00	2490.323
712.00	2496.118
713.00	2501.809
714.00	2466.046
715.00	2446.986
716.00	2481.579
717.00	2370.536
718.00	2346.345
719.00	2357.047
720.00	2324.718
721.00	2362.527
722.00	2311.805
723.00	2297.531
724.00	2273.540
725.00	2241.777
726.00	2267.434
727.00	2236.371
728.00	2223.923
729.00	2215.729
730.00	2146.835
731.00	2104.831
732.00	2140.058
733.00	2107.328
734.00	2112.147
735.00	2073.754
736.00	2059.459
737.00	1983.023
738.00	2031.900
739.00	2011.752
740.00	1964.000
741.00	1930.159
742.00	1906.636
743.00	1862.874
744.00	1871.514
745.00	1864.315
746.00	1805.669
747.00	1778.683
748.00	1732.880
749.00	1704.836
750.00	1686.167
751.00	1723.532
752.00	1691.841
753.00	1667.779
754.00	1653.685
755.00	1606.491
756.00	1600.170
757.00	1574.772
758.00	1573.994
759.00	1532.204
760.00	1516.069
761.00	1517.292
762.00	1488.864
763.00	1484.676
764.00	1478.898
765.00	1448.977
766.00	1413.752
767.00	1401.550
768.00	1368.529
769.00	1342.128
770.00	1324.498
771.00	1318.639
772.00	1307.518
773.00	1276.118
774.00	1290.169
775.00	1243.058
776.00	1239.275
777.00	1232.411
778.00	1186.316
779.00	1200.861
780.00	1178.912
781.00	1179.396
782.00	1179.743
783.00	1142.450
784.00	1172.397
785.00	1139.599
786.00	1142.626
787.00	1128.479
788.00	1128.238
789.00	1114.308
790.00	1149.257
791.00	1120.982
792.00	1104.792
793.00	1117.038
794.00	1126.778
795.00	1097.798
796.00	1068.962
797.00	1070.983
798.00	1074.541
799.00	1049.431
800.00	1052.579
801.00	1034.803
802.00	1016.053
803.00	998.097
804.00	994.057
805.00	980.454
806.00	951.243
807.00	933.317
808.00	893.862
809.00	927.527
810.00	897.054
811.00	888.693
812.00	874.408
813.00	861.417
814.00	870.464
815.00	845.745
816.00	856.175
817.00	834.486
818.00	835.963
819.00	816.332
820.00	831.821
821.00	783.361
822.00	773.850
823.00	769.287
824.00	756.962
825.00	748.051
826.00	744.163
827.00	728.656
828.00	726.829
829.00	702.400
830.00	703.255
831.00	689.112
832.00	673.136
833.00	668.964
834.00	661.199
835.00	651.754
836.00	649.594
837.00	634.412
838.00	622.224
839.00	613.609
840.00	608.322
841.00	602.213
842.00	589.831
843.00	587.286
844.00	582.078
845.00	570.841
846.00	564.131
847.00	565.398
848.00	564.041
849.00	550.703
850.00	544.475
851.00	543.609
852.00	536.111
853.00	519.790
854.00	517.656
855.00	510.645
856.00	508.942
857.00	508.843
858.00	496.728
859.00	488.241
860.00	498.670
861.00	477.742
862.00	479.001
863.00	475.527
864.00	470.012
865.00	464.427
866.00	463.487
867.00	459.836
868.00	446.513
869.00	446.710
870.00	438.338
871.00	439.582
872.00	430.836
873.00	434.140
874.00	425.982
875.00	424.131
876.00	415.209
877.00	411.886
878.00	415.824
879.00	409.473
880.00	405.192
881.00	396.101
882.00	399.069
883.00	394.152
884.00	390.229
885.00	385.784
886.00	385.928
887.00	385.065
888.00	379.438
889.00	380.489
890.00	376.267
891.00	375.662
892.00	370.112
893.00	365.925
894.00	366.885
895.00	370.757
896.00	367.188
897.00	366.421
898.00	363.006
899.00	361.022
900.00	358.126
901.00	361.895
902.00	355.400
903.00	353.586
904.00	350.102
905.00	351.843
906.00	346.495
907.00	351.455
908.00	351.450
909.00	343.181
910.00	340.402
911.00	333.634
912.00	331.383
913.00	329.636
914.00	334.234
915.00	329.964
916.00	324.018
917.00	322.437
918.00	318.724
919.00	315.560
920.00	312.543
921.00	311.505
922.00	310.562
923.00	305.146
924.00	301.585
925.00	302.108
926.00	294.231
927.00	291.193
928.00	289.354
929.00	289.175
930.00	287.435
931.00	281.475
932.00	282.855
933.00	278.548
934.00	278.384
935.00	278.171
936.00	277.619
937.00	277.383
938.00	273.034
939.00	273.022
940.00	269.098
941.00	268.574
942.00	266.785
943.00	267.308
944.00	267.438
945.00	265.025
946.00	264.658
947.00	264.588
948.00	257.983
949.00	259.468
950.00	254.949
951.00	258.126
952.00	256.435
953.00	254.003
954.00	253.752
955.00	252.898
956.00	252.266
957.00	248.836
958.00	250.332
959.00	251.109
960.00	250.271
961.00	246.370
962.00	245.701
963.00	253.107
964.00	246.226
965.00	246.904
966.00	245.324
967.00	244.780
968.00	243.757
969.00	240.670
970.00	238.928
971.00	241.801
972.00	238.090
973.00	238.531
974.00	238.903
975.00	237.208
976.00	235.106
977.00	235.922
978.00	235.097
979.00	235.217
980.00	238.431
981.00	233.652
982.00	233.896
983.00	232.166
984.00	230.726
985.00	231.350
986.00	231.897
987.00	233.734
988.00	232.926
989.00	230.512
990.00	230.201
991.00	231.048
992.00	229.389
993.00	227.520
994.00	229.296
995.00	229.278
996.00	228.450
997.00	227.690
998.00	228.766
999.00	227.389
1000.00	229.799
>>>>>End Spectral Data<<<<<
