SpectraSuite Data File
++++++++++++++++++++++++++++++++++++
Date: Thu Nov 20 12:39:03 CET 2014
User: admin
Dark Spectrum Present: Yes
Reference Spectrum Present: Yes
Number of Sampled Component Spectra: 1
Spectrometers: USB2G49547
Integration Time (usec): 120000 (USB2G49547)
Spectra Averaged: 8 (USB2G49547)
Boxcar Smoothing: 0 (USB2G49547)
Correct for Electrical Dark: No (USB2G49547)
Strobe/Lamp Enabled: No (USB2G49547)
Correct for Detector Non-linearity: No (USB2G49547)
Correct for Stray Light: No (USB2G49547)
Number of Pixels in Processed Spectrum: 651
>>>>>Begin Processed Spectral Data<<<<<
350.00	100.183
351.00	87.165
352.00	96.662
353.00	131.718
354.00	167.471
355.00	48.815
356.00	81.304
357.00	175.416
358.00	169.354
359.00	81.193
360.00	96.119
361.00	455.700
362.00	91.615
363.00	131.312
364.00	28.403
365.00	93.427
366.00	71.455
367.00	160.474
368.00	57.893
369.00	132.643
370.00	84.915
371.00	36.319
372.00	129.245
373.00	99.884
374.00	99.375
375.00	104.342
376.00	96.342
377.00	65.892
378.00	133.107
379.00	145.119
380.00	131.778
381.00	85.319
382.00	105.963
383.00	122.043
384.00	98.724
385.00	71.282
386.00	209.990
387.00	134.122
388.00	77.796
389.00	66.759
390.00	99.863
391.00	118.375
392.00	78.596
393.00	143.607
394.00	169.723
395.00	130.741
396.00	93.910
397.00	113.269
398.00	138.325
399.00	98.591
400.00	88.791
401.00	105.389
402.00	84.859
403.00	88.588
404.00	87.914
405.00	112.796
406.00	120.267
407.00	97.317
408.00	106.283
409.00	111.512
410.00	75.943
411.00	107.399
412.00	105.430
413.00	95.602
414.00	122.922
415.00	87.565
416.00	114.953
417.00	102.894
418.00	95.717
419.00	117.546
420.00	81.105
421.00	104.366
422.00	92.607
423.00	102.942
424.00	94.981
425.00	98.242
426.00	106.002
427.00	89.079
428.00	87.340
429.00	90.765
430.00	94.592
431.00	88.488
432.00	98.891
433.00	91.221
434.00	100.009
435.00	102.765
436.00	87.711
437.00	96.301
438.00	95.126
439.00	106.923
440.00	100.192
441.00	94.741
442.00	95.249
443.00	93.172
444.00	90.205
445.00	93.212
446.00	103.758
447.00	98.856
448.00	100.084
449.00	99.323
450.00	105.570
451.00	94.861
452.00	93.518
453.00	98.745
454.00	96.124
455.00	94.482
456.00	96.194
457.00	102.022
458.00	97.327
459.00	98.335
460.00	100.535
461.00	100.082
462.00	99.895
463.00	96.684
464.00	94.485
465.00	100.519
466.00	95.651
467.00	96.506
468.00	97.193
469.00	95.387
470.00	98.127
471.00	96.688
472.00	98.325
473.00	95.831
474.00	100.596
475.00	98.343
476.00	98.239
477.00	98.563
478.00	98.769
479.00	97.314
480.00	97.389
481.00	97.516
482.00	97.204
483.00	97.796
484.00	97.630
485.00	98.171
486.00	98.156
487.00	97.394
488.00	97.788
489.00	96.969
490.00	97.526
491.00	97.409
492.00	97.298
493.00	97.793
494.00	96.723
495.00	97.852
496.00	97.308
497.00	96.857
498.00	96.440
499.00	97.031
500.00	97.950
501.00	98.369
502.00	96.777
503.00	96.876
504.00	96.933
505.00	98.662
506.00	97.359
507.00	96.605
508.00	97.402
509.00	96.851
510.00	97.357
511.00	96.969
512.00	97.636
513.00	96.946
514.00	97.335
515.00	97.321
516.00	97.372
517.00	97.233
518.00	96.444
519.00	96.949
520.00	97.477
521.00	97.318
522.00	97.056
523.00	96.933
524.00	96.985
525.00	97.203
526.00	96.545
527.00	96.714
528.00	97.152
529.00	96.559
530.00	96.915
531.00	97.188
532.00	97.029
533.00	96.971
534.00	97.040
535.00	96.407
536.00	96.738
537.00	96.698
538.00	96.389
539.00	96.642
540.00	96.562
541.00	96.434
542.00	96.710
543.00	96.763
544.00	96.945
545.00	96.442
546.00	96.498
547.00	95.966
548.00	96.538
549.00	96.490
550.00	96.548
551.00	97.358
552.00	96.498
553.00	96.485
554.00	96.432
555.00	96.301
556.00	96.311
557.00	96.186
558.00	96.342
559.00	96.541
560.00	95.759
561.00	96.290
562.00	96.421
563.00	96.398
564.00	96.060
565.00	96.036
566.00	95.435
567.00	95.843
568.00	96.026
569.00	95.952
570.00	96.203
571.00	96.199
572.00	95.567
573.00	95.807
574.00	96.198
575.00	95.826
576.00	96.015
577.00	95.434
578.00	95.537
579.00	95.995
580.00	96.141
581.00	95.746
582.00	95.483
583.00	95.644
584.00	95.369
585.00	95.665
586.00	95.554
587.00	95.385
588.00	95.893
589.00	95.587
590.00	95.549
591.00	95.382
592.00	95.263
593.00	95.538
594.00	95.234
595.00	95.147
596.00	95.090
597.00	95.109
598.00	94.897
599.00	95.207
600.00	95.333
601.00	95.576
602.00	94.967
603.00	94.930
604.00	95.166
605.00	95.062
606.00	95.143
607.00	95.032
608.00	94.757
609.00	94.976
610.00	94.890
611.00	94.794
612.00	95.157
613.00	95.131
614.00	95.298
615.00	95.092
616.00	95.262
617.00	95.204
618.00	95.267
619.00	94.924
620.00	95.201
621.00	94.616
622.00	95.194
623.00	94.639
624.00	94.530
625.00	95.235
626.00	95.102
627.00	95.224
628.00	95.537
629.00	95.235
630.00	95.674
631.00	95.341
632.00	95.427
633.00	95.350
634.00	95.396
635.00	95.257
636.00	95.524
637.00	95.711
638.00	95.419
639.00	95.065
640.00	95.339
641.00	95.602
642.00	95.193
643.00	95.535
644.00	95.814
645.00	95.902
646.00	95.631
647.00	95.836
648.00	96.059
649.00	95.907
650.00	96.447
651.00	95.913
652.00	96.517
653.00	96.489
654.00	96.218
655.00	96.812
656.00	96.922
657.00	96.763
658.00	97.226
659.00	97.034
660.00	97.655
661.00	97.300
662.00	97.777
663.00	97.806
664.00	97.838
665.00	97.799
666.00	98.019
667.00	98.047
668.00	97.556
669.00	97.694
670.00	96.789
671.00	97.725
672.00	98.420
673.00	97.731
674.00	97.754
675.00	97.785
676.00	97.890
677.00	97.578
678.00	97.629
679.00	97.806
680.00	97.890
681.00	97.465
682.00	98.149
683.00	98.023
684.00	97.948
685.00	98.046
686.00	97.370
687.00	97.683
688.00	97.293
689.00	97.803
690.00	97.321
691.00	97.557
692.00	97.360
693.00	97.305
694.00	97.954
695.00	97.237
696.00	97.267
697.00	97.498
698.00	97.759
699.00	97.560
700.00	96.728
701.00	97.106
702.00	97.136
703.00	97.142
704.00	96.932
705.00	96.854
706.00	96.046
707.00	96.697
708.00	96.156
709.00	96.664
710.00	96.303
711.00	97.127
712.00	96.902
713.00	95.912
714.00	96.200
715.00	96.049
716.00	96.093
717.00	95.613
718.00	96.531
719.00	95.953
720.00	95.992
721.00	95.802
722.00	95.355
723.00	94.803
724.00	95.037
725.00	95.375
726.00	94.646
727.00	94.945
728.00	94.971
729.00	94.212
730.00	94.349
731.00	94.005
732.00	94.334
733.00	94.265
734.00	93.605
735.00	93.730
736.00	93.814
737.00	93.794
738.00	93.370
739.00	92.235
740.00	93.232
741.00	92.945
742.00	92.350
743.00	91.960
744.00	91.619
745.00	91.885
746.00	91.547
747.00	91.800
748.00	90.539
749.00	91.628
750.00	91.205
751.00	90.655
752.00	91.051
753.00	90.308
754.00	90.428
755.00	90.039
756.00	90.468
757.00	89.359
758.00	88.409
759.00	88.785
760.00	88.939
761.00	88.612
762.00	87.967
763.00	88.577
764.00	87.656
765.00	87.150
766.00	86.867
767.00	87.117
768.00	86.339
769.00	86.064
770.00	86.050
771.00	85.382
772.00	85.494
773.00	85.265
774.00	84.393
775.00	84.385
776.00	84.348
777.00	84.377
778.00	84.444
779.00	83.287
780.00	82.749
781.00	82.573
782.00	81.733
783.00	82.394
784.00	81.320
785.00	80.453
786.00	80.071
787.00	80.184
788.00	79.435
789.00	79.604
790.00	78.217
791.00	77.823
792.00	78.936
793.00	77.455
794.00	75.677
795.00	75.679
796.00	75.942
797.00	75.266
798.00	74.664
799.00	75.267
800.00	73.756
801.00	73.303
802.00	72.451
803.00	72.477
804.00	71.485
805.00	71.858
806.00	70.901
807.00	70.310
808.00	70.669
809.00	69.022
810.00	69.661
811.00	69.999
812.00	68.316
813.00	67.799
814.00	67.269
815.00	67.750
816.00	66.315
817.00	66.354
818.00	65.918
819.00	66.199
820.00	65.067
821.00	64.595
822.00	64.296
823.00	65.041
824.00	64.069
825.00	64.169
826.00	62.813
827.00	63.478
828.00	61.897
829.00	62.434
830.00	61.380
831.00	61.911
832.00	61.695
833.00	61.757
834.00	61.350
835.00	61.487
836.00	61.355
837.00	62.510
838.00	62.108
839.00	61.254
840.00	61.318
841.00	61.673
842.00	60.932
843.00	61.100
844.00	60.458
845.00	61.826
846.00	59.213
847.00	61.547
848.00	60.749
849.00	60.539
850.00	60.340
851.00	62.082
852.00	59.405
853.00	61.124
854.00	59.899
855.00	61.306
856.00	61.693
857.00	61.550
858.00	63.271
859.00	61.018
860.00	60.932
861.00	61.693
862.00	60.658
863.00	59.848
864.00	60.602
865.00	61.762
866.00	64.026
867.00	63.503
868.00	62.365
869.00	63.201
870.00	63.745
871.00	61.423
872.00	63.364
873.00	64.723
874.00	63.271
875.00	63.456
876.00	64.128
877.00	64.955
878.00	65.164
879.00	64.983
880.00	63.951
881.00	66.924
882.00	64.626
883.00	67.227
884.00	64.062
885.00	66.973
886.00	67.115
887.00	65.993
888.00	66.773
889.00	67.162
890.00	66.633
891.00	67.217
892.00	68.379
893.00	66.856
894.00	70.476
895.00	66.745
896.00	70.503
897.00	68.354
898.00	69.199
899.00	69.878
900.00	68.458
901.00	70.715
902.00	69.654
903.00	71.380
904.00	73.990
905.00	70.540
906.00	73.371
907.00	73.243
908.00	73.885
909.00	72.133
910.00	73.618
911.00	74.026
912.00	76.092
913.00	73.458
914.00	73.422
915.00	77.546
916.00	78.934
917.00	73.338
918.00	74.716
919.00	75.626
920.00	76.440
921.00	75.720
922.00	79.359
923.00	78.800
924.00	77.054
925.00	77.964
926.00	76.157
927.00	85.421
928.00	80.198
929.00	82.773
930.00	75.333
931.00	79.121
932.00	81.938
933.00	79.412
934.00	82.370
935.00	72.814
936.00	77.126
937.00	80.245
938.00	75.435
939.00	85.385
940.00	82.293
941.00	74.248
942.00	85.827
943.00	82.850
944.00	82.310
945.00	86.933
946.00	80.336
947.00	82.326
948.00	86.516
949.00	82.293
950.00	91.083
951.00	85.799
952.00	81.598
953.00	86.145
954.00	86.210
955.00	91.606
956.00	93.227
957.00	88.316
958.00	91.957
959.00	85.342
960.00	82.785
961.00	84.756
962.00	81.108
963.00	86.192
964.00	85.009
965.00	89.966
966.00	89.557
967.00	87.196
968.00	96.404
969.00	93.989
970.00	87.144
971.00	90.511
972.00	87.867
973.00	99.397
974.00	99.270
975.00	84.339
976.00	89.874
977.00	94.238
978.00	87.147
979.00	84.169
980.00	77.567
981.00	90.879
982.00	107.397
983.00	99.786
984.00	94.257
985.00	82.307
986.00	90.369
987.00	107.374
988.00	101.042
989.00	84.261
990.00	92.877
991.00	81.996
992.00	109.408
993.00	67.481
994.00	96.408
995.00	84.611
996.00	110.326
997.00	72.708
998.00	90.656
999.00	103.246
1000.00	103.156
>>>>>End Processed Spectral Data<<<<<
