SpectraSuite Data File
++++++++++++++++++++++++++++++++++++
Date: Thu Nov 20 12:36:02 CET 2014
User: admin
Dark Spectrum Present: Yes
Reference Spectrum Present: Yes
Number of Sampled Component Spectra: 1
Spectrometers: USB2G49547
Integration Time (usec): 120000 (USB2G49547)
Spectra Averaged: 8 (USB2G49547)
Boxcar Smoothing: 0 (USB2G49547)
Correct for Electrical Dark: No (USB2G49547)
Strobe/Lamp Enabled: No (USB2G49547)
Correct for Detector Non-linearity: No (USB2G49547)
Correct for Stray Light: No (USB2G49547)
Number of Pixels in Processed Spectrum: 651
>>>>>Begin Processed Spectral Data<<<<<
350.00	103.813
351.00	105.754
352.00	86.625
353.00	75.517
354.00	99.948
355.00	115.152
356.00	135.468
357.00	106.522
358.00	68.455
359.00	162.120
360.00	91.460
361.00	115.279
362.00	77.245
363.00	112.624
364.00	74.222
365.00	57.423
366.00	146.190
367.00	129.854
368.00	125.107
369.00	111.869
370.00	129.440
371.00	75.688
372.00	59.911
373.00	115.755
374.00	87.684
375.00	83.916
376.00	67.938
377.00	155.366
378.00	126.113
379.00	130.878
380.00	110.262
381.00	90.983
382.00	94.762
383.00	71.986
384.00	108.760
385.00	110.423
386.00	199.312
387.00	33.969
388.00	103.301
389.00	106.040
390.00	87.457
391.00	79.585
392.00	119.062
393.00	70.791
394.00	47.508
395.00	68.395
396.00	89.610
397.00	63.508
398.00	89.856
399.00	130.094
400.00	85.474
401.00	110.693
402.00	84.404
403.00	74.876
404.00	82.099
405.00	94.687
406.00	82.995
407.00	121.478
408.00	84.323
409.00	91.779
410.00	90.559
411.00	94.868
412.00	86.555
413.00	118.885
414.00	107.090
415.00	109.155
416.00	126.003
417.00	94.859
418.00	100.475
419.00	103.186
420.00	110.879
421.00	102.094
422.00	92.723
423.00	98.219
424.00	103.525
425.00	97.949
426.00	94.938
427.00	97.961
428.00	90.729
429.00	97.874
430.00	97.500
431.00	96.937
432.00	108.547
433.00	101.983
434.00	106.886
435.00	103.187
436.00	90.203
437.00	97.258
438.00	103.439
439.00	106.662
440.00	100.781
441.00	99.474
442.00	95.719
443.00	99.710
444.00	105.091
445.00	98.204
446.00	95.144
447.00	98.471
448.00	96.608
449.00	100.225
450.00	100.307
451.00	100.413
452.00	100.417
453.00	96.415
454.00	102.187
455.00	95.940
456.00	96.713
457.00	96.751
458.00	98.401
459.00	100.900
460.00	99.015
461.00	98.006
462.00	100.211
463.00	97.528
464.00	96.322
465.00	100.207
466.00	99.538
467.00	96.728
468.00	97.250
469.00	98.622
470.00	97.595
471.00	97.523
472.00	97.714
473.00	97.734
474.00	99.861
475.00	98.433
476.00	99.625
477.00	98.560
478.00	99.677
479.00	98.736
480.00	98.837
481.00	99.980
482.00	98.903
483.00	98.681
484.00	97.641
485.00	98.988
486.00	99.406
487.00	96.672
488.00	98.829
489.00	98.394
490.00	98.317
491.00	98.375
492.00	98.099
493.00	99.361
494.00	99.018
495.00	99.251
496.00	98.123
497.00	99.470
498.00	98.926
499.00	98.036
500.00	99.323
501.00	97.958
502.00	98.708
503.00	98.068
504.00	98.860
505.00	98.409
506.00	98.572
507.00	98.993
508.00	98.767
509.00	98.169
510.00	98.819
511.00	98.726
512.00	99.129
513.00	98.577
514.00	98.211
515.00	99.000
516.00	98.732
517.00	97.731
518.00	98.431
519.00	98.155
520.00	98.022
521.00	98.029
522.00	98.232
523.00	98.047
524.00	98.276
525.00	98.252
526.00	97.962
527.00	97.903
528.00	98.290
529.00	98.169
530.00	97.622
531.00	97.636
532.00	97.576
533.00	98.044
534.00	98.167
535.00	98.159
536.00	97.085
537.00	98.254
538.00	97.760
539.00	98.469
540.00	98.024
541.00	97.505
542.00	97.925
543.00	97.613
544.00	98.085
545.00	97.256
546.00	97.540
547.00	96.949
548.00	97.773
549.00	97.559
550.00	97.567
551.00	97.568
552.00	97.361
553.00	96.942
554.00	97.519
555.00	96.847
556.00	96.864
557.00	97.502
558.00	97.332
559.00	97.016
560.00	97.331
561.00	97.749
562.00	96.950
563.00	96.899
564.00	97.328
565.00	97.088
566.00	96.762
567.00	97.203
568.00	96.935
569.00	96.891
570.00	97.220
571.00	97.568
572.00	96.961
573.00	96.875
574.00	97.135
575.00	97.754
576.00	96.829
577.00	97.480
578.00	97.063
579.00	96.921
580.00	97.486
581.00	96.892
582.00	96.802
583.00	96.645
584.00	96.853
585.00	96.707
586.00	96.315
587.00	96.644
588.00	96.830
589.00	96.404
590.00	96.913
591.00	97.154
592.00	96.151
593.00	96.419
594.00	96.820
595.00	96.546
596.00	96.286
597.00	96.292
598.00	96.565
599.00	96.565
600.00	96.493
601.00	96.698
602.00	96.676
603.00	96.444
604.00	96.844
605.00	96.374
606.00	96.057
607.00	95.756
608.00	96.344
609.00	95.944
610.00	95.703
611.00	96.191
612.00	95.822
613.00	95.793
614.00	95.904
615.00	95.869
616.00	95.931
617.00	96.232
618.00	95.623
619.00	96.133
620.00	95.394
621.00	96.112
622.00	96.376
623.00	95.957
624.00	95.810
625.00	95.521
626.00	95.872
627.00	96.195
628.00	96.012
629.00	95.612
630.00	95.255
631.00	95.715
632.00	95.891
633.00	96.177
634.00	95.548
635.00	95.324
636.00	95.830
637.00	95.539
638.00	96.037
639.00	95.801
640.00	95.572
641.00	95.617
642.00	95.450
643.00	95.369
644.00	95.852
645.00	95.928
646.00	94.993
647.00	95.325
648.00	95.333
649.00	95.373
650.00	95.194
651.00	95.213
652.00	95.317
653.00	95.364
654.00	94.979
655.00	95.403
656.00	95.271
657.00	95.338
658.00	94.925
659.00	95.337
660.00	95.200
661.00	95.106
662.00	95.229
663.00	95.160
664.00	95.269
665.00	95.598
666.00	95.251
667.00	95.165
668.00	95.499
669.00	95.002
670.00	94.909
671.00	94.936
672.00	95.381
673.00	95.444
674.00	95.140
675.00	94.698
676.00	95.415
677.00	94.707
678.00	94.977
679.00	94.779
680.00	94.485
681.00	94.715
682.00	94.887
683.00	94.242
684.00	94.666
685.00	94.030
686.00	93.930
687.00	94.248
688.00	93.949
689.00	93.698
690.00	93.469
691.00	93.857
692.00	93.254
693.00	93.622
694.00	93.124
695.00	93.416
696.00	92.545
697.00	92.549
698.00	92.584
699.00	92.320
700.00	92.958
701.00	92.343
702.00	91.725
703.00	92.134
704.00	91.935
705.00	91.379
706.00	92.101
707.00	91.569
708.00	91.497
709.00	90.921
710.00	90.363
711.00	91.505
712.00	90.808
713.00	90.939
714.00	90.065
715.00	90.116
716.00	90.075
717.00	90.245
718.00	89.889
719.00	89.147
720.00	88.247
721.00	88.611
722.00	88.629
723.00	89.002
724.00	88.240
725.00	88.129
726.00	88.294
727.00	86.871
728.00	88.078
729.00	87.360
730.00	87.328
731.00	86.980
732.00	86.305
733.00	86.107
734.00	85.267
735.00	85.443
736.00	85.130
737.00	84.551
738.00	84.503
739.00	84.037
740.00	83.390
741.00	83.911
742.00	82.421
743.00	82.631
744.00	82.019
745.00	81.351
746.00	81.669
747.00	81.610
748.00	80.350
749.00	80.717
750.00	80.389
751.00	79.691
752.00	79.018
753.00	78.837
754.00	79.508
755.00	78.498
756.00	78.547
757.00	77.541
758.00	77.919
759.00	77.677
760.00	76.668
761.00	75.205
762.00	76.190
763.00	74.826
764.00	74.892
765.00	74.974
766.00	73.375
767.00	74.075
768.00	73.673
769.00	72.353
770.00	72.793
771.00	71.516
772.00	72.294
773.00	71.800
774.00	70.950
775.00	70.773
776.00	70.911
777.00	70.759
778.00	69.695
779.00	69.990
780.00	69.994
781.00	69.636
782.00	68.144
783.00	68.684
784.00	67.859
785.00	67.218
786.00	68.041
787.00	68.141
788.00	67.674
789.00	67.413
790.00	67.321
791.00	66.420
792.00	67.341
793.00	66.377
794.00	66.126
795.00	66.433
796.00	65.707
797.00	66.235
798.00	65.818
799.00	66.626
800.00	65.222
801.00	64.360
802.00	64.895
803.00	65.536
804.00	64.362
805.00	64.884
806.00	64.820
807.00	65.333
808.00	65.541
809.00	64.610
810.00	65.690
811.00	65.485
812.00	65.346
813.00	64.781
814.00	63.980
815.00	65.187
816.00	64.526
817.00	65.619
818.00	65.365
819.00	64.649
820.00	64.598
821.00	65.006
822.00	66.550
823.00	66.143
824.00	65.064
825.00	66.585
826.00	65.625
827.00	65.156
828.00	64.422
829.00	66.143
830.00	65.372
831.00	65.512
832.00	66.670
833.00	65.736
834.00	66.765
835.00	67.556
836.00	67.336
837.00	69.025
838.00	68.480
839.00	67.148
840.00	68.155
841.00	68.330
842.00	68.066
843.00	68.397
844.00	68.037
845.00	68.958
846.00	69.194
847.00	68.725
848.00	68.860
849.00	69.440
850.00	70.113
851.00	68.978
852.00	68.736
853.00	71.070
854.00	71.563
855.00	70.356
856.00	72.793
857.00	71.632
858.00	70.874
859.00	70.489
860.00	71.427
861.00	73.523
862.00	69.854
863.00	71.720
864.00	74.720
865.00	72.491
866.00	71.747
867.00	72.399
868.00	73.649
869.00	74.313
870.00	74.967
871.00	72.975
872.00	76.126
873.00	75.188
874.00	74.432
875.00	74.741
876.00	75.428
877.00	75.858
878.00	76.593
879.00	77.658
880.00	76.675
881.00	75.834
882.00	77.417
883.00	77.396
884.00	75.617
885.00	73.096
886.00	78.441
887.00	76.378
888.00	76.315
889.00	79.218
890.00	77.260
891.00	79.856
892.00	80.150
893.00	80.133
894.00	81.171
895.00	80.232
896.00	79.823
897.00	76.436
898.00	79.595
899.00	80.401
900.00	78.890
901.00	79.573
902.00	79.087
903.00	78.738
904.00	79.438
905.00	81.663
906.00	81.332
907.00	81.127
908.00	81.227
909.00	79.879
910.00	80.896
911.00	81.242
912.00	81.778
913.00	84.586
914.00	84.437
915.00	81.698
916.00	82.083
917.00	80.482
918.00	81.840
919.00	80.490
920.00	83.259
921.00	82.576
922.00	82.206
923.00	82.690
924.00	87.150
925.00	81.722
926.00	87.396
927.00	82.161
928.00	82.741
929.00	82.574
930.00	78.897
931.00	81.453
932.00	79.083
933.00	85.578
934.00	83.804
935.00	84.191
936.00	82.261
937.00	82.793
938.00	86.957
939.00	86.477
940.00	87.965
941.00	80.746
942.00	83.841
943.00	88.015
944.00	91.288
945.00	86.427
946.00	82.423
947.00	86.548
948.00	87.560
949.00	90.530
950.00	85.372
951.00	86.537
952.00	89.968
953.00	85.224
954.00	98.217
955.00	81.710
956.00	102.430
957.00	90.699
958.00	101.751
959.00	84.262
960.00	90.470
961.00	85.851
962.00	91.261
963.00	94.369
964.00	89.727
965.00	96.511
966.00	85.815
967.00	87.923
968.00	91.138
969.00	91.980
970.00	83.818
971.00	87.406
972.00	89.377
973.00	99.060
974.00	94.371
975.00	85.605
976.00	89.237
977.00	103.583
978.00	88.446
979.00	88.773
980.00	90.142
981.00	96.546
982.00	87.629
983.00	88.169
984.00	100.929
985.00	99.335
986.00	99.881
987.00	87.608
988.00	101.632
989.00	72.307
990.00	76.615
991.00	89.872
992.00	111.736
993.00	91.451
994.00	90.203
995.00	94.544
996.00	92.482
997.00	119.934
998.00	100.700
999.00	65.869
1000.00	81.462
>>>>>End Processed Spectral Data<<<<<
