SpectraSuite Data File
++++++++++++++++++++++++++++++++++++
Date: Thu Nov 20 12:41:39 CET 2014
User: admin
Spectrometer Serial Number: USB2G49547
Spectrometer Channel: 0
Integration Time (usec): 120000
Spectra Averaged: 8
Boxcar Smoothing: 0
Correct for Electrical Dark: No
Strobe/Lamp Enabled: No
Correct for Detector Non-linearity: No
Correct for Stray Light: No
Number of Pixels in Spectrum: 651
>>>>>Begin Spectral Data<<<<<
350.00	220.242
351.00	218.992
352.00	221.126
353.00	220.869
354.00	220.390
355.00	221.829
356.00	222.527
357.00	221.917
358.00	218.692
359.00	221.413
360.00	221.146
361.00	220.245
362.00	221.642
363.00	222.733
364.00	222.388
365.00	221.519
366.00	223.088
367.00	223.311
368.00	222.404
369.00	223.254
370.00	223.184
371.00	224.318
372.00	225.860
373.00	223.008
374.00	223.173
375.00	224.511
376.00	221.949
377.00	223.107
378.00	221.908
379.00	223.281
380.00	223.921
381.00	224.004
382.00	223.305
383.00	223.610
384.00	223.722
385.00	226.197
386.00	225.012
387.00	225.534
388.00	224.218
389.00	224.840
390.00	226.552
391.00	223.928
392.00	224.535
393.00	226.505
394.00	228.446
395.00	226.014
396.00	225.337
397.00	227.317
398.00	228.918
399.00	228.713
400.00	225.820
401.00	228.118
402.00	227.841
403.00	230.610
404.00	228.896
405.00	228.560
406.00	229.995
407.00	229.557
408.00	233.578
409.00	229.481
410.00	231.107
411.00	231.457
412.00	230.569
413.00	230.624
414.00	232.308
415.00	233.486
416.00	234.158
417.00	238.918
418.00	234.762
419.00	237.179
420.00	233.826
421.00	236.890
422.00	239.620
423.00	239.942
424.00	238.874
425.00	241.756
426.00	242.686
427.00	244.514
428.00	244.783
429.00	245.702
430.00	245.788
431.00	246.580
432.00	252.363
433.00	253.462
434.00	252.639
435.00	256.114
436.00	258.100
437.00	259.888
438.00	261.653
439.00	262.264
440.00	265.849
441.00	265.785
442.00	268.910
443.00	270.653
444.00	287.832
445.00	277.303
446.00	278.647
447.00	281.646
448.00	279.930
449.00	284.979
450.00	290.412
451.00	290.656
452.00	295.653
453.00	298.405
454.00	300.565
455.00	304.882
456.00	311.734
457.00	317.320
458.00	321.098
459.00	324.007
460.00	325.674
461.00	329.473
462.00	336.115
463.00	339.299
464.00	347.726
465.00	353.110
466.00	363.539
467.00	369.291
468.00	382.183
469.00	393.391
470.00	397.710
471.00	411.982
472.00	419.577
473.00	432.361
474.00	440.735
475.00	460.386
476.00	476.853
477.00	499.480
478.00	519.612
479.00	537.413
480.00	560.401
481.00	574.228
482.00	607.475
483.00	626.790
484.00	666.128
485.00	678.227
486.00	702.066
487.00	730.065
488.00	761.083
489.00	795.007
490.00	821.605
491.00	874.524
492.00	896.919
493.00	924.043
494.00	981.497
495.00	1028.549
496.00	1047.364
497.00	1093.631
498.00	1073.954
499.00	1146.625
500.00	1182.322
501.00	1194.608
502.00	1252.639
503.00	1332.806
504.00	1410.124
505.00	1434.402
506.00	1463.822
507.00	1486.565
508.00	1501.883
509.00	1547.538
510.00	1585.456
511.00	1641.419
512.00	1655.544
513.00	1714.723
514.00	1726.637
515.00	1755.863
516.00	1806.643
517.00	1825.158
518.00	1871.769
519.00	1928.455
520.00	1971.641
521.00	2049.342
522.00	2050.544
523.00	2053.379
524.00	2107.796
525.00	2153.748
526.00	2196.596
527.00	2246.569
528.00	2299.486
529.00	2298.765
530.00	2342.323
531.00	2372.239
532.00	2421.346
533.00	2462.603
534.00	2507.894
535.00	2548.684
536.00	2538.548
537.00	2547.351
538.00	2599.260
539.00	2626.080
540.00	2708.643
541.00	2749.635
542.00	2773.183
543.00	2790.104
544.00	2836.854
545.00	2855.890
546.00	2820.839
547.00	2905.439
548.00	2863.235
549.00	2937.786
550.00	2939.542
551.00	2918.443
552.00	3015.009
553.00	3004.073
554.00	3010.482
555.00	3095.767
556.00	3066.790
557.00	3113.618
558.00	3084.352
559.00	3139.347
560.00	3152.969
561.00	3152.821
562.00	3160.660
563.00	3156.349
564.00	3191.339
565.00	3172.576
566.00	3206.796
567.00	3219.602
568.00	3215.744
569.00	3233.704
570.00	3280.760
571.00	3320.655
572.00	3316.651
573.00	3347.823
574.00	3321.320
575.00	3365.841
576.00	3356.082
577.00	3368.695
578.00	3387.673
579.00	3367.891
580.00	3454.529
581.00	3443.677
582.00	3487.979
583.00	3447.677
584.00	3461.991
585.00	3539.825
586.00	3495.890
587.00	3509.270
588.00	3511.419
589.00	3518.514
590.00	3568.535
591.00	3589.815
592.00	3506.594
593.00	3599.311
594.00	3588.703
595.00	3638.336
596.00	3618.705
597.00	3623.938
598.00	3613.392
599.00	3599.839
600.00	3631.910
601.00	3649.981
602.00	3722.138
603.00	3622.360
604.00	3664.040
605.00	3636.145
606.00	3700.239
607.00	3663.092
608.00	3694.894
609.00	3657.376
610.00	3690.479
611.00	3648.508
612.00	3599.634
613.00	3654.043
614.00	3694.525
615.00	3692.983
616.00	3714.206
617.00	3654.030
618.00	3613.101
619.00	3655.470
620.00	3681.156
621.00	3656.027
622.00	3628.763
623.00	3644.477
624.00	3618.283
625.00	3648.917
626.00	3576.184
627.00	3643.815
628.00	3632.285
629.00	3719.977
630.00	3623.917
631.00	3633.150
632.00	3643.124
633.00	3610.844
634.00	3614.439
635.00	3631.698
636.00	3573.742
637.00	3632.900
638.00	3534.065
639.00	3541.928
640.00	3518.808
641.00	3551.091
642.00	3542.446
643.00	3589.112
644.00	3591.726
645.00	3553.276
646.00	3609.703
647.00	3552.833
648.00	3600.247
649.00	3589.531
650.00	3569.533
651.00	3583.905
652.00	3501.235
653.00	3549.732
654.00	3613.175
655.00	3636.962
656.00	3543.155
657.00	3556.500
658.00	3481.474
659.00	3515.189
660.00	3477.490
661.00	3466.417
662.00	3458.710
663.00	3432.504
664.00	3471.884
665.00	3505.934
666.00	3380.071
667.00	3421.937
668.00	3378.846
669.00	3377.645
670.00	3399.284
671.00	3360.833
672.00	3325.338
673.00	3268.950
674.00	3299.212
675.00	3312.985
676.00	3192.113
677.00	3158.009
678.00	3142.955
679.00	3160.499
680.00	3083.697
681.00	3089.486
682.00	3090.685
683.00	3055.495
684.00	3034.786
685.00	3043.944
686.00	2948.391
687.00	3013.582
688.00	2998.009
689.00	2924.487
690.00	2883.722
691.00	2934.377
692.00	2889.511
693.00	2897.434
694.00	2870.347
695.00	2851.676
696.00	2825.476
697.00	2803.951
698.00	2825.060
699.00	2777.945
700.00	2719.532
701.00	2692.101
702.00	2685.793
703.00	2626.855
704.00	2616.589
705.00	2597.214
706.00	2572.656
707.00	2520.899
708.00	2563.782
709.00	2498.478
710.00	2510.986
711.00	2464.039
712.00	2450.912
713.00	2484.512
714.00	2434.121
715.00	2393.604
716.00	2417.895
717.00	2336.471
718.00	2324.145
719.00	2324.124
720.00	2316.624
721.00	2325.989
722.00	2282.228
723.00	2267.396
724.00	2249.370
725.00	2190.232
726.00	2202.857
727.00	2182.745
728.00	2192.955
729.00	2163.304
730.00	2132.564
731.00	2075.585
732.00	2074.595
733.00	2063.324
734.00	2057.231
735.00	2044.507
736.00	2012.967
737.00	1957.895
738.00	1985.511
739.00	1991.793
740.00	1910.708
741.00	1884.682
742.00	1885.105
743.00	1849.483
744.00	1827.167
745.00	1847.176
746.00	1806.472
747.00	1761.228
748.00	1694.238
749.00	1695.970
750.00	1665.157
751.00	1688.281
752.00	1647.558
753.00	1662.137
754.00	1636.157
755.00	1602.200
756.00	1593.751
757.00	1572.404
758.00	1530.585
759.00	1523.430
760.00	1507.299
761.00	1490.422
762.00	1473.772
763.00	1451.330
764.00	1455.268
765.00	1414.524
766.00	1396.565
767.00	1363.191
768.00	1367.014
769.00	1333.953
770.00	1313.942
771.00	1299.839
772.00	1292.270
773.00	1262.347
774.00	1241.279
775.00	1225.277
776.00	1220.598
777.00	1206.460
778.00	1191.468
779.00	1200.103
780.00	1173.810
781.00	1175.455
782.00	1180.479
783.00	1136.140
784.00	1161.302
785.00	1125.445
786.00	1128.092
787.00	1116.217
788.00	1122.046
789.00	1106.713
790.00	1120.171
791.00	1132.950
792.00	1099.735
793.00	1100.736
794.00	1112.583
795.00	1105.971
796.00	1076.140
797.00	1067.752
798.00	1069.625
799.00	1029.762
800.00	1034.996
801.00	1024.988
802.00	1003.323
803.00	992.426
804.00	984.794
805.00	975.654
806.00	953.993
807.00	942.482
808.00	890.625
809.00	910.877
810.00	897.818
811.00	891.775
812.00	877.583
813.00	875.603
814.00	871.486
815.00	842.904
816.00	829.935
817.00	824.397
818.00	833.082
819.00	801.144
820.00	825.986
821.00	786.840
822.00	778.309
823.00	771.486
824.00	760.245
825.00	740.775
826.00	742.770
827.00	719.968
828.00	720.778
829.00	693.865
830.00	709.455
831.00	687.507
832.00	669.268
833.00	670.337
834.00	667.325
835.00	644.300
836.00	644.053
837.00	631.333
838.00	621.379
839.00	614.007
840.00	601.748
841.00	595.904
842.00	584.459
843.00	583.114
844.00	574.711
845.00	567.496
846.00	561.542
847.00	563.940
848.00	562.776
849.00	543.521
850.00	540.129
851.00	546.117
852.00	530.307
853.00	517.990
854.00	508.940
855.00	502.311
856.00	499.378
857.00	507.967
858.00	501.868
859.00	492.240
860.00	494.687
861.00	481.873
862.00	480.624
863.00	475.000
864.00	470.172
865.00	461.841
866.00	459.054
867.00	456.959
868.00	443.451
869.00	442.798
870.00	437.574
871.00	439.448
872.00	435.113
873.00	433.943
874.00	426.101
875.00	422.776
876.00	408.762
877.00	410.276
878.00	415.033
879.00	408.490
880.00	405.422
881.00	397.362
882.00	399.511
883.00	387.760
884.00	392.284
885.00	390.909
886.00	386.298
887.00	384.362
888.00	377.989
889.00	375.792
890.00	375.556
891.00	377.515
892.00	367.821
893.00	368.915
894.00	367.291
895.00	372.759
896.00	369.111
897.00	364.530
898.00	362.329
899.00	361.526
900.00	362.243
901.00	363.033
902.00	359.149
903.00	354.504
904.00	354.689
905.00	356.266
906.00	352.768
907.00	346.799
908.00	352.862
909.00	344.838
910.00	342.758
911.00	334.723
912.00	330.855
913.00	332.392
914.00	332.574
915.00	329.749
916.00	327.037
917.00	323.323
918.00	319.772
919.00	315.871
920.00	314.354
921.00	312.750
922.00	312.923
923.00	303.547
924.00	303.504
925.00	299.049
926.00	297.988
927.00	291.120
928.00	291.188
929.00	287.083
930.00	285.928
931.00	282.206
932.00	284.714
933.00	280.023
934.00	279.744
935.00	278.716
936.00	275.904
937.00	276.806
938.00	271.716
939.00	271.581
940.00	271.477
941.00	268.067
942.00	266.788
943.00	267.445
944.00	269.327
945.00	268.067
946.00	263.945
947.00	260.927
948.00	260.961
949.00	259.301
950.00	256.906
951.00	257.748
952.00	257.996
953.00	253.574
954.00	254.760
955.00	254.671
956.00	251.723
957.00	252.306
958.00	252.075
959.00	251.431
960.00	250.683
961.00	248.262
962.00	247.276
963.00	250.664
964.00	244.195
965.00	248.188
966.00	242.866
967.00	241.526
968.00	240.576
969.00	242.029
970.00	240.192
971.00	240.688
972.00	237.321
973.00	239.319
974.00	238.420
975.00	238.944
976.00	235.463
977.00	236.169
978.00	237.003
979.00	236.304
980.00	238.299
981.00	231.835
982.00	233.747
983.00	232.400
984.00	232.969
985.00	232.168
986.00	231.615
987.00	234.739
988.00	232.276
989.00	230.747
990.00	230.342
991.00	230.315
992.00	230.379
993.00	228.623
994.00	227.176
995.00	229.130
996.00	228.196
997.00	227.277
998.00	228.854
999.00	227.872
1000.00	224.956
>>>>>End Spectral Data<<<<<
