SpectraSuite Data File
++++++++++++++++++++++++++++++++++++
Date: Thu Nov 20 12:45:41 CET 2014
User: admin
Dark Spectrum Present: Yes
Reference Spectrum Present: Yes
Number of Sampled Component Spectra: 1
Spectrometers: USB2G49547
Integration Time (usec): 120000 (USB2G49547)
Spectra Averaged: 8 (USB2G49547)
Boxcar Smoothing: 0 (USB2G49547)
Correct for Electrical Dark: No (USB2G49547)
Strobe/Lamp Enabled: No (USB2G49547)
Correct for Detector Non-linearity: No (USB2G49547)
Correct for Stray Light: No (USB2G49547)
Number of Pixels in Processed Spectrum: 651
>>>>>Begin Processed Spectral Data<<<<<
350.00	70.063
351.00	98.055
352.00	225.228
353.00	25.207
354.00	93.855
355.00	98.351
356.00	177.379
357.00	207.165
358.00	104.126
359.00	217.347
360.00	128.158
361.00	134.713
362.00	76.794
363.00	86.276
364.00	161.143
365.00	101.390
366.00	56.357
367.00	72.919
368.00	86.308
369.00	87.200
370.00	102.168
371.00	81.417
372.00	104.257
373.00	119.554
374.00	49.208
375.00	78.209
376.00	159.802
377.00	206.142
378.00	146.644
379.00	78.474
380.00	66.295
381.00	113.862
382.00	216.285
383.00	105.137
384.00	42.107
385.00	95.808
386.00	144.364
387.00	93.065
388.00	106.857
389.00	99.747
390.00	66.287
391.00	97.558
392.00	94.325
393.00	87.411
394.00	80.883
395.00	128.334
396.00	91.835
397.00	89.963
398.00	88.416
399.00	69.004
400.00	120.059
401.00	102.449
402.00	115.828
403.00	87.199
404.00	55.073
405.00	119.795
406.00	87.175
407.00	104.739
408.00	107.243
409.00	78.763
410.00	88.830
411.00	97.821
412.00	94.092
413.00	75.765
414.00	89.200
415.00	99.364
416.00	102.304
417.00	84.222
418.00	112.291
419.00	97.723
420.00	98.974
421.00	107.055
422.00	91.283
423.00	103.690
424.00	96.342
425.00	86.659
426.00	85.881
427.00	93.900
428.00	93.342
429.00	94.189
430.00	95.492
431.00	100.395
432.00	101.619
433.00	88.614
434.00	98.122
435.00	91.601
436.00	91.169
437.00	98.034
438.00	89.567
439.00	93.050
440.00	94.947
441.00	100.927
442.00	96.089
443.00	97.732
444.00	100.487
445.00	98.708
446.00	93.749
447.00	96.474
448.00	95.309
449.00	93.409
450.00	93.289
451.00	97.737
452.00	97.343
453.00	92.560
454.00	101.704
455.00	103.160
456.00	98.516
457.00	101.115
458.00	96.555
459.00	101.592
460.00	98.259
461.00	96.112
462.00	94.895
463.00	98.187
464.00	98.701
465.00	98.358
466.00	97.933
467.00	98.663
468.00	98.405
469.00	95.640
470.00	97.852
471.00	98.408
472.00	99.105
473.00	99.086
474.00	98.158
475.00	98.744
476.00	96.905
477.00	98.035
478.00	99.509
479.00	98.846
480.00	95.972
481.00	98.060
482.00	97.852
483.00	99.002
484.00	99.310
485.00	98.629
486.00	98.231
487.00	99.748
488.00	98.112
489.00	98.404
490.00	98.243
491.00	97.535
492.00	99.400
493.00	99.476
494.00	99.538
495.00	98.735
496.00	99.389
497.00	99.695
498.00	98.499
499.00	98.562
500.00	98.578
501.00	98.205
502.00	99.156
503.00	99.024
504.00	98.933
505.00	98.419
506.00	99.078
507.00	98.313
508.00	98.051
509.00	98.564
510.00	98.027
511.00	97.845
512.00	98.335
513.00	98.299
514.00	97.716
515.00	98.326
516.00	98.338
517.00	97.342
518.00	98.337
519.00	97.609
520.00	98.191
521.00	97.891
522.00	97.999
523.00	98.198
524.00	98.298
525.00	97.471
526.00	98.055
527.00	97.539
528.00	98.091
529.00	97.392
530.00	97.623
531.00	97.929
532.00	97.499
533.00	97.897
534.00	98.245
535.00	98.166
536.00	97.845
537.00	98.031
538.00	97.567
539.00	97.923
540.00	97.868
541.00	97.535
542.00	97.869
543.00	97.804
544.00	97.643
545.00	97.307
546.00	97.391
547.00	97.114
548.00	97.540
549.00	97.327
550.00	97.659
551.00	97.477
552.00	97.316
553.00	97.465
554.00	97.425
555.00	97.523
556.00	96.812
557.00	97.269
558.00	97.283
559.00	97.410
560.00	97.064
561.00	96.984
562.00	96.645
563.00	97.355
564.00	96.901
565.00	96.875
566.00	97.630
567.00	97.331
568.00	97.032
569.00	97.289
570.00	96.915
571.00	96.335
572.00	96.394
573.00	96.821
574.00	96.895
575.00	96.704
576.00	96.586
577.00	96.712
578.00	96.392
579.00	96.676
580.00	96.365
581.00	96.225
582.00	96.378
583.00	96.557
584.00	96.752
585.00	96.543
586.00	96.611
587.00	96.405
588.00	96.267
589.00	95.935
590.00	96.511
591.00	96.217
592.00	96.192
593.00	96.022
594.00	96.201
595.00	96.332
596.00	96.253
597.00	95.723
598.00	96.123
599.00	96.074
600.00	96.315
601.00	96.315
602.00	95.922
603.00	95.711
604.00	96.005
605.00	95.719
606.00	95.647
607.00	96.053
608.00	95.888
609.00	95.513
610.00	96.555
611.00	96.111
612.00	96.010
613.00	95.263
614.00	95.481
615.00	96.026
616.00	95.771
617.00	95.353
618.00	95.715
619.00	95.057
620.00	95.399
621.00	95.622
622.00	95.162
623.00	95.320
624.00	95.800
625.00	95.702
626.00	95.263
627.00	95.219
628.00	95.364
629.00	94.971
630.00	95.475
631.00	95.774
632.00	95.281
633.00	95.263
634.00	94.935
635.00	95.234
636.00	95.353
637.00	95.170
638.00	95.380
639.00	95.079
640.00	95.174
641.00	95.560
642.00	95.432
643.00	95.295
644.00	94.827
645.00	94.638
646.00	95.429
647.00	95.157
648.00	94.597
649.00	95.189
650.00	95.145
651.00	94.931
652.00	95.426
653.00	95.342
654.00	94.909
655.00	95.435
656.00	95.349
657.00	95.177
658.00	94.998
659.00	95.087
660.00	95.967
661.00	95.240
662.00	95.157
663.00	95.307
664.00	95.112
665.00	94.977
666.00	94.981
667.00	95.036
668.00	94.947
669.00	95.531
670.00	95.342
671.00	95.249
672.00	95.592
673.00	95.375
674.00	95.606
675.00	95.364
676.00	95.119
677.00	95.623
678.00	95.640
679.00	95.220
680.00	95.626
681.00	96.186
682.00	95.305
683.00	96.100
684.00	96.027
685.00	96.136
686.00	96.186
687.00	96.433
688.00	96.115
689.00	96.524
690.00	96.792
691.00	96.539
692.00	96.524
693.00	96.590
694.00	96.326
695.00	96.681
696.00	97.358
697.00	97.005
698.00	97.315
699.00	96.935
700.00	96.998
701.00	97.364
702.00	96.512
703.00	96.879
704.00	97.237
705.00	97.040
706.00	97.338
707.00	97.128
708.00	96.780
709.00	97.761
710.00	96.801
711.00	97.762
712.00	97.673
713.00	96.568
714.00	97.170
715.00	97.314
716.00	96.535
717.00	96.875
718.00	96.574
719.00	96.794
720.00	96.968
721.00	96.708
722.00	96.514
723.00	96.626
724.00	96.873
725.00	97.005
726.00	96.956
727.00	96.703
728.00	96.687
729.00	96.581
730.00	96.650
731.00	96.717
732.00	96.016
733.00	95.574
734.00	95.637
735.00	95.719
736.00	95.065
737.00	94.400
738.00	95.558
739.00	95.354
740.00	94.587
741.00	95.311
742.00	94.695
743.00	94.272
744.00	94.521
745.00	94.251
746.00	94.200
747.00	94.226
748.00	94.191
749.00	93.743
750.00	94.160
751.00	92.947
752.00	93.075
753.00	93.476
754.00	93.086
755.00	93.637
756.00	92.387
757.00	92.097
758.00	92.311
759.00	92.251
760.00	91.844
761.00	91.307
762.00	92.348
763.00	91.474
764.00	91.084
765.00	90.543
766.00	90.971
767.00	90.166
768.00	89.752
769.00	89.402
770.00	89.377
771.00	89.500
772.00	88.772
773.00	88.983
774.00	88.538
775.00	87.625
776.00	87.526
777.00	88.908
778.00	86.710
779.00	86.535
780.00	86.737
781.00	85.502
782.00	85.844
783.00	85.146
784.00	84.676
785.00	84.569
786.00	84.407
787.00	83.924
788.00	83.423
789.00	83.509
790.00	82.202
791.00	82.964
792.00	82.215
793.00	81.551
794.00	80.681
795.00	80.905
796.00	79.366
797.00	79.971
798.00	80.096
799.00	79.779
800.00	78.509
801.00	77.184
802.00	78.246
803.00	77.788
804.00	76.782
805.00	76.581
806.00	76.111
807.00	74.803
808.00	76.022
809.00	74.895
810.00	73.719
811.00	76.209
812.00	75.051
813.00	74.541
814.00	73.659
815.00	73.553
816.00	72.152
817.00	73.427
818.00	72.088
819.00	73.275
820.00	73.115
821.00	72.792
822.00	71.857
823.00	73.938
824.00	72.871
825.00	72.508
826.00	72.210
827.00	71.265
828.00	71.500
829.00	71.778
830.00	70.825
831.00	71.739
832.00	72.130
833.00	72.181
834.00	71.381
835.00	71.962
836.00	72.209
837.00	72.375
838.00	71.871
839.00	72.315
840.00	71.764
841.00	71.997
842.00	71.944
843.00	72.275
844.00	72.878
845.00	71.304
846.00	71.796
847.00	71.562
848.00	72.417
849.00	73.337
850.00	72.661
851.00	72.883
852.00	71.931
853.00	72.929
854.00	72.663
855.00	74.314
856.00	72.775
857.00	71.956
858.00	72.748
859.00	73.509
860.00	73.418
861.00	71.967
862.00	73.858
863.00	71.995
864.00	75.112
865.00	75.179
866.00	73.615
867.00	73.122
868.00	73.612
869.00	74.189
870.00	75.625
871.00	73.276
872.00	74.024
873.00	75.662
874.00	74.725
875.00	73.731
876.00	76.142
877.00	78.677
878.00	76.229
879.00	74.962
880.00	74.822
881.00	75.890
882.00	76.043
883.00	74.627
884.00	76.895
885.00	77.976
886.00	79.161
887.00	75.862
888.00	76.268
889.00	77.519
890.00	75.040
891.00	80.330
892.00	75.407
893.00	77.087
894.00	78.471
895.00	78.861
896.00	78.583
897.00	80.493
898.00	78.973
899.00	79.506
900.00	82.082
901.00	81.173
902.00	80.992
903.00	80.001
904.00	81.004
905.00	81.267
906.00	81.064
907.00	81.293
908.00	80.927
909.00	83.578
910.00	80.071
911.00	80.954
912.00	81.737
913.00	82.481
914.00	80.478
915.00	83.808
916.00	82.111
917.00	82.935
918.00	84.852
919.00	85.956
920.00	84.024
921.00	84.222
922.00	80.483
923.00	88.042
924.00	81.598
925.00	84.117
926.00	88.705
927.00	84.933
928.00	86.131
929.00	86.239
930.00	87.576
931.00	86.286
932.00	85.179
933.00	84.936
934.00	82.491
935.00	90.830
936.00	90.592
937.00	84.634
938.00	86.639
939.00	85.377
940.00	84.850
941.00	92.141
942.00	89.372
943.00	89.317
944.00	92.544
945.00	84.649
946.00	93.205
947.00	88.646
948.00	88.169
949.00	90.706
950.00	94.565
951.00	83.629
952.00	95.152
953.00	88.463
954.00	92.847
955.00	96.487
956.00	80.818
957.00	89.083
958.00	91.092
959.00	93.367
960.00	82.535
961.00	102.898
962.00	94.252
963.00	87.866
964.00	81.736
965.00	91.904
966.00	84.754
967.00	90.089
968.00	88.427
969.00	103.322
970.00	83.947
971.00	92.110
972.00	88.196
973.00	83.099
974.00	99.972
975.00	89.135
976.00	84.455
977.00	79.991
978.00	101.749
979.00	93.526
980.00	80.892
981.00	107.569
982.00	92.170
983.00	93.335
984.00	91.436
985.00	116.586
986.00	116.676
987.00	97.213
988.00	105.349
989.00	102.715
990.00	89.491
991.00	107.329
992.00	97.794
993.00	89.957
994.00	84.527
995.00	71.163
996.00	78.228
997.00	102.938
998.00	93.342
999.00	102.457
1000.00	92.967
>>>>>End Processed Spectral Data<<<<<
