SpectraSuite Data File
++++++++++++++++++++++++++++++++++++
Date: Thu Nov 20 12:44:54 CET 2014
User: admin
Dark Spectrum Present: Yes
Reference Spectrum Present: Yes
Number of Sampled Component Spectra: 1
Spectrometers: USB2G49547
Integration Time (usec): 120000 (USB2G49547)
Spectra Averaged: 8 (USB2G49547)
Boxcar Smoothing: 0 (USB2G49547)
Correct for Electrical Dark: No (USB2G49547)
Strobe/Lamp Enabled: No (USB2G49547)
Correct for Detector Non-linearity: No (USB2G49547)
Correct for Stray Light: No (USB2G49547)
Number of Pixels in Processed Spectrum: 651
>>>>>Begin Processed Spectral Data<<<<<
350.00	80.297
351.00	101.150
352.00	260.361
353.00	67.937
354.00	111.487
355.00	94.387
356.00	101.157
357.00	93.554
358.00	86.444
359.00	160.644
360.00	123.729
361.00	122.666
362.00	60.369
363.00	56.498
364.00	179.792
365.00	93.691
366.00	135.927
367.00	108.357
368.00	165.604
369.00	123.081
370.00	113.381
371.00	112.829
372.00	127.093
373.00	104.549
374.00	56.921
375.00	102.980
376.00	119.432
377.00	176.172
378.00	78.396
379.00	61.480
380.00	98.110
381.00	72.776
382.00	111.885
383.00	165.434
384.00	76.365
385.00	81.644
386.00	64.405
387.00	100.475
388.00	88.800
389.00	111.345
390.00	80.224
391.00	88.245
392.00	108.895
393.00	85.586
394.00	69.656
395.00	99.544
396.00	119.388
397.00	113.027
398.00	73.119
399.00	113.672
400.00	108.604
401.00	84.359
402.00	86.367
403.00	76.162
404.00	76.882
405.00	80.522
406.00	83.725
407.00	106.139
408.00	109.169
409.00	112.525
410.00	90.372
411.00	80.099
412.00	83.462
413.00	77.738
414.00	104.520
415.00	109.049
416.00	102.666
417.00	89.956
418.00	111.221
419.00	97.887
420.00	97.938
421.00	103.180
422.00	95.308
423.00	105.684
424.00	97.819
425.00	91.975
426.00	80.980
427.00	93.400
428.00	96.994
429.00	91.787
430.00	89.919
431.00	102.799
432.00	97.016
433.00	91.018
434.00	96.294
435.00	95.403
436.00	91.295
437.00	97.068
438.00	94.249
439.00	94.764
440.00	97.223
441.00	105.938
442.00	96.632
443.00	99.256
444.00	97.073
445.00	101.813
446.00	97.816
447.00	101.699
448.00	95.008
449.00	99.224
450.00	93.278
451.00	99.582
452.00	101.049
453.00	93.311
454.00	98.088
455.00	96.775
456.00	99.285
457.00	98.174
458.00	93.074
459.00	99.518
460.00	98.905
461.00	96.544
462.00	96.505
463.00	97.311
464.00	97.557
465.00	97.530
466.00	98.426
467.00	99.200
468.00	98.957
469.00	96.185
470.00	98.833
471.00	99.528
472.00	98.711
473.00	97.310
474.00	98.130
475.00	97.427
476.00	97.889
477.00	96.868
478.00	96.132
479.00	97.857
480.00	96.401
481.00	98.324
482.00	96.522
483.00	97.487
484.00	98.492
485.00	98.556
486.00	98.204
487.00	98.594
488.00	97.153
489.00	98.486
490.00	97.952
491.00	97.543
492.00	98.103
493.00	97.828
494.00	98.124
495.00	98.124
496.00	98.963
497.00	98.866
498.00	97.070
499.00	97.054
500.00	98.201
501.00	98.280
502.00	97.478
503.00	98.072
504.00	97.969
505.00	98.210
506.00	98.149
507.00	97.954
508.00	97.896
509.00	98.161
510.00	97.709
511.00	97.150
512.00	97.283
513.00	97.100
514.00	96.936
515.00	97.479
516.00	97.118
517.00	96.443
518.00	97.204
519.00	97.454
520.00	97.072
521.00	97.537
522.00	97.957
523.00	97.867
524.00	98.057
525.00	97.670
526.00	97.323
527.00	97.066
528.00	97.364
529.00	97.794
530.00	97.940
531.00	97.217
532.00	96.679
533.00	97.592
534.00	97.449
535.00	97.067
536.00	97.344
537.00	97.212
538.00	97.210
539.00	97.668
540.00	97.088
541.00	97.246
542.00	97.422
543.00	97.410
544.00	97.472
545.00	97.498
546.00	97.173
547.00	97.336
548.00	97.292
549.00	96.936
550.00	96.788
551.00	97.362
552.00	96.773
553.00	97.054
554.00	96.980
555.00	97.448
556.00	96.910
557.00	97.101
558.00	97.395
559.00	96.833
560.00	97.086
561.00	97.033
562.00	96.715
563.00	97.175
564.00	97.395
565.00	97.319
566.00	97.152
567.00	97.195
568.00	96.972
569.00	96.827
570.00	96.863
571.00	96.801
572.00	96.489
573.00	96.575
574.00	96.469
575.00	96.468
576.00	96.836
577.00	96.874
578.00	96.568
579.00	96.382
580.00	96.386
581.00	96.973
582.00	96.499
583.00	96.402
584.00	96.672
585.00	96.745
586.00	96.780
587.00	96.511
588.00	96.165
589.00	96.502
590.00	96.630
591.00	96.187
592.00	96.485
593.00	96.432
594.00	96.866
595.00	96.735
596.00	96.637
597.00	96.348
598.00	96.322
599.00	96.305
600.00	96.443
601.00	96.293
602.00	96.328
603.00	96.409
604.00	95.891
605.00	96.057
606.00	95.947
607.00	96.441
608.00	96.073
609.00	96.193
610.00	96.489
611.00	96.640
612.00	96.101
613.00	96.004
614.00	96.416
615.00	96.255
616.00	96.005
617.00	96.083
618.00	95.966
619.00	95.796
620.00	96.426
621.00	96.082
622.00	96.160
623.00	96.544
624.00	96.182
625.00	96.275
626.00	96.287
627.00	96.318
628.00	96.397
629.00	96.278
630.00	96.160
631.00	96.391
632.00	96.157
633.00	96.126
634.00	96.104
635.00	96.045
636.00	95.987
637.00	96.020
638.00	96.278
639.00	96.571
640.00	96.396
641.00	96.677
642.00	96.575
643.00	96.453
644.00	96.356
645.00	96.214
646.00	96.656
647.00	96.677
648.00	96.625
649.00	96.985
650.00	97.350
651.00	96.924
652.00	97.224
653.00	97.190
654.00	96.787
655.00	97.865
656.00	97.278
657.00	97.313
658.00	97.458
659.00	97.573
660.00	98.093
661.00	98.005
662.00	97.868
663.00	98.774
664.00	97.666
665.00	97.998
666.00	97.901
667.00	98.034
668.00	98.107
669.00	98.404
670.00	98.296
671.00	98.269
672.00	98.084
673.00	98.456
674.00	98.819
675.00	98.291
676.00	97.878
677.00	97.890
678.00	98.157
679.00	98.204
680.00	98.307
681.00	98.369
682.00	98.197
683.00	97.736
684.00	97.897
685.00	98.458
686.00	97.879
687.00	98.532
688.00	97.869
689.00	97.716
690.00	98.088
691.00	98.192
692.00	97.797
693.00	97.991
694.00	97.469
695.00	97.610
696.00	97.899
697.00	97.352
698.00	97.635
699.00	97.603
700.00	97.054
701.00	97.188
702.00	96.810
703.00	97.018
704.00	97.366
705.00	97.316
706.00	97.091
707.00	96.236
708.00	96.887
709.00	97.037
710.00	97.009
711.00	97.111
712.00	96.911
713.00	95.914
714.00	96.354
715.00	96.921
716.00	96.394
717.00	95.874
718.00	96.172
719.00	95.532
720.00	95.173
721.00	95.807
722.00	95.313
723.00	95.054
724.00	95.144
725.00	95.493
726.00	95.276
727.00	94.822
728.00	95.115
729.00	95.013
730.00	95.406
731.00	95.028
732.00	93.992
733.00	93.997
734.00	94.594
735.00	94.104
736.00	93.663
737.00	92.904
738.00	93.596
739.00	94.003
740.00	92.833
741.00	94.016
742.00	93.513
743.00	92.885
744.00	92.469
745.00	92.379
746.00	91.762
747.00	92.947
748.00	92.002
749.00	91.259
750.00	91.514
751.00	90.637
752.00	90.835
753.00	91.059
754.00	90.898
755.00	90.264
756.00	90.002
757.00	89.535
758.00	89.815
759.00	89.150
760.00	89.778
761.00	88.586
762.00	89.376
763.00	89.071
764.00	88.722
765.00	87.825
766.00	87.859
767.00	87.428
768.00	87.300
769.00	86.504
770.00	86.527
771.00	86.067
772.00	85.991
773.00	86.228
774.00	85.649
775.00	85.149
776.00	84.724
777.00	86.601
778.00	84.520
779.00	83.518
780.00	84.186
781.00	82.221
782.00	82.930
783.00	82.520
784.00	81.724
785.00	81.471
786.00	82.232
787.00	80.840
788.00	80.647
789.00	80.882
790.00	80.439
791.00	79.932
792.00	79.293
793.00	78.559
794.00	78.434
795.00	79.431
796.00	78.032
797.00	78.149
798.00	78.761
799.00	78.541
800.00	77.555
801.00	76.139
802.00	76.602
803.00	75.953
804.00	76.300
805.00	75.519
806.00	75.306
807.00	75.432
808.00	75.201
809.00	75.178
810.00	74.847
811.00	75.769
812.00	74.580
813.00	74.459
814.00	74.102
815.00	74.110
816.00	73.710
817.00	74.177
818.00	72.977
819.00	74.835
820.00	75.191
821.00	73.866
822.00	74.253
823.00	75.190
824.00	74.389
825.00	75.067
826.00	74.711
827.00	73.875
828.00	74.124
829.00	73.855
830.00	72.984
831.00	74.058
832.00	74.121
833.00	73.270
834.00	74.651
835.00	73.493
836.00	75.549
837.00	74.795
838.00	74.956
839.00	74.419
840.00	74.058
841.00	74.524
842.00	74.560
843.00	74.269
844.00	75.720
845.00	73.617
846.00	76.053
847.00	75.417
848.00	75.829
849.00	76.455
850.00	75.312
851.00	75.511
852.00	76.484
853.00	76.526
854.00	76.454
855.00	77.609
856.00	76.935
857.00	75.575
858.00	76.416
859.00	77.730
860.00	75.559
861.00	76.450
862.00	77.155
863.00	76.257
864.00	79.069
865.00	79.196
866.00	78.287
867.00	77.918
868.00	77.495
869.00	79.007
870.00	78.528
871.00	77.996
872.00	78.982
873.00	78.078
874.00	78.401
875.00	77.750
876.00	79.262
877.00	80.833
878.00	80.569
879.00	79.534
880.00	81.120
881.00	80.461
882.00	81.646
883.00	81.255
884.00	83.290
885.00	80.661
886.00	80.873
887.00	82.177
888.00	81.603
889.00	81.432
890.00	80.721
891.00	83.668
892.00	82.823
893.00	84.118
894.00	83.529
895.00	84.034
896.00	84.558
897.00	83.694
898.00	82.203
899.00	83.478
900.00	86.120
901.00	85.334
902.00	85.575
903.00	87.166
904.00	86.200
905.00	86.324
906.00	85.395
907.00	85.474
908.00	85.191
909.00	86.810
910.00	88.894
911.00	84.078
912.00	87.042
913.00	86.168
914.00	86.207
915.00	87.422
916.00	89.099
917.00	87.251
918.00	89.444
919.00	89.618
920.00	91.138
921.00	88.829
922.00	86.316
923.00	90.607
924.00	88.825
925.00	87.592
926.00	89.111
927.00	93.878
928.00	94.978
929.00	87.578
930.00	91.122
931.00	89.067
932.00	91.036
933.00	90.570
934.00	86.208
935.00	88.023
936.00	90.603
937.00	89.614
938.00	91.686
939.00	92.445
940.00	88.085
941.00	97.244
942.00	95.651
943.00	93.571
944.00	91.974
945.00	87.366
946.00	94.048
947.00	89.466
948.00	88.113
949.00	90.112
950.00	97.575
951.00	86.655
952.00	88.125
953.00	92.960
954.00	103.201
955.00	94.733
956.00	85.881
957.00	90.466
958.00	92.063
959.00	97.533
960.00	81.877
961.00	100.383
962.00	96.489
963.00	92.457
964.00	92.385
965.00	102.645
966.00	88.692
967.00	95.975
968.00	76.713
969.00	102.208
970.00	88.838
971.00	98.779
972.00	92.297
973.00	102.745
974.00	110.025
975.00	94.142
976.00	89.951
977.00	91.922
978.00	109.390
979.00	94.546
980.00	92.437
981.00	102.220
982.00	107.830
983.00	95.204
984.00	73.845
985.00	97.109
986.00	111.114
987.00	103.855
988.00	95.369
989.00	105.960
990.00	88.481
991.00	94.488
992.00	87.524
993.00	99.528
994.00	101.932
995.00	100.336
996.00	94.400
997.00	87.213
998.00	93.546
999.00	81.326
1000.00	97.969
>>>>>End Processed Spectral Data<<<<<
