SpectraSuite Data File
++++++++++++++++++++++++++++++++++++
Date: Thu Nov 20 12:46:53 CET 2014
User: admin
Spectrometer Serial Number: USB2G49547
Spectrometer Channel: 0
Integration Time (usec): 120000
Spectra Averaged: 8
Boxcar Smoothing: 0
Correct for Electrical Dark: No
Strobe/Lamp Enabled: No
Correct for Detector Non-linearity: No
Correct for Stray Light: No
Number of Pixels in Spectrum: 651
>>>>>Begin Spectral Data<<<<<
350.00	219.418
351.00	220.739
352.00	221.709
353.00	219.648
354.00	219.762
355.00	221.838
356.00	221.715
357.00	218.728
358.00	222.167
359.00	222.173
360.00	222.845
361.00	223.582
362.00	221.130
363.00	222.259
364.00	221.519
365.00	221.819
366.00	223.298
367.00	223.283
368.00	223.331
369.00	223.067
370.00	222.970
371.00	222.834
372.00	224.080
373.00	223.356
374.00	224.723
375.00	224.997
376.00	224.057
377.00	223.284
378.00	223.431
379.00	223.678
380.00	224.763
381.00	224.660
382.00	224.673
383.00	224.688
384.00	224.513
385.00	228.833
386.00	226.867
387.00	225.244
388.00	224.808
389.00	225.298
390.00	226.746
391.00	224.984
392.00	226.434
393.00	226.996
394.00	228.308
395.00	226.010
396.00	227.258
397.00	228.151
398.00	228.149
399.00	229.861
400.00	228.217
401.00	226.431
402.00	227.194
403.00	229.805
404.00	229.266
405.00	227.061
406.00	229.762
407.00	228.297
408.00	233.643
409.00	230.571
410.00	234.123
411.00	229.498
412.00	231.904
413.00	232.625
414.00	232.434
415.00	233.940
416.00	233.889
417.00	235.138
418.00	236.581
419.00	238.555
420.00	237.117
421.00	238.984
422.00	237.979
423.00	237.497
424.00	239.086
425.00	242.752
426.00	242.634
427.00	246.504
428.00	245.955
429.00	246.104
430.00	247.149
431.00	248.326
432.00	253.101
433.00	252.000
434.00	256.256
435.00	258.086
436.00	258.687
437.00	259.668
438.00	262.024
439.00	264.353
440.00	265.838
441.00	268.132
442.00	270.394
443.00	273.527
444.00	288.108
445.00	278.634
446.00	276.179
447.00	281.001
448.00	282.191
449.00	284.170
450.00	290.316
451.00	290.582
452.00	299.643
453.00	298.580
454.00	303.690
455.00	306.468
456.00	308.302
457.00	313.322
458.00	318.524
459.00	322.326
460.00	325.102
461.00	331.906
462.00	337.106
463.00	343.774
464.00	348.448
465.00	354.947
466.00	365.367
467.00	371.465
468.00	383.169
469.00	391.617
470.00	403.708
471.00	411.502
472.00	418.344
473.00	435.058
474.00	440.948
475.00	461.510
476.00	480.838
477.00	496.452
478.00	518.657
479.00	535.019
480.00	559.507
481.00	582.631
482.00	608.970
483.00	632.276
484.00	661.053
485.00	678.493
486.00	708.913
487.00	734.853
488.00	760.269
489.00	802.025
490.00	829.712
491.00	882.611
492.00	899.127
493.00	935.840
494.00	986.903
495.00	1036.542
496.00	1052.359
497.00	1100.405
498.00	1092.177
499.00	1153.052
500.00	1178.921
501.00	1207.647
502.00	1270.905
503.00	1353.994
504.00	1429.042
505.00	1441.071
506.00	1478.685
507.00	1492.093
508.00	1530.551
509.00	1569.353
510.00	1600.138
511.00	1649.931
512.00	1674.784
513.00	1736.974
514.00	1746.268
515.00	1776.235
516.00	1826.105
517.00	1841.965
518.00	1913.016
519.00	1956.460
520.00	2009.957
521.00	2063.296
522.00	2072.324
523.00	2061.456
524.00	2131.771
525.00	2165.804
526.00	2207.915
527.00	2255.578
528.00	2322.194
529.00	2314.276
530.00	2336.080
531.00	2418.351
532.00	2455.246
533.00	2482.844
534.00	2533.007
535.00	2573.238
536.00	2577.468
537.00	2580.533
538.00	2634.516
539.00	2669.201
540.00	2729.262
541.00	2779.063
542.00	2784.283
543.00	2825.223
544.00	2869.319
545.00	2889.134
546.00	2869.134
547.00	2921.536
548.00	2920.222
549.00	2975.650
550.00	3007.619
551.00	2996.083
552.00	3064.785
553.00	3066.334
554.00	3059.567
555.00	3134.846
556.00	3097.050
557.00	3174.646
558.00	3156.670
559.00	3203.620
560.00	3221.468
561.00	3220.783
562.00	3214.129
563.00	3217.808
564.00	3212.672
565.00	3250.736
566.00	3279.631
567.00	3274.477
568.00	3260.397
569.00	3298.987
570.00	3366.474
571.00	3370.687
572.00	3382.277
573.00	3426.828
574.00	3397.446
575.00	3418.813
576.00	3398.788
577.00	3402.275
578.00	3450.966
579.00	3438.259
580.00	3513.746
581.00	3488.737
582.00	3563.115
583.00	3519.654
584.00	3551.323
585.00	3593.625
586.00	3557.700
587.00	3585.750
588.00	3568.627
589.00	3587.781
590.00	3624.135
591.00	3649.253
592.00	3575.493
593.00	3656.137
594.00	3651.553
595.00	3681.926
596.00	3647.391
597.00	3703.076
598.00	3675.030
599.00	3680.925
600.00	3737.265
601.00	3709.724
602.00	3809.822
603.00	3719.668
604.00	3758.132
605.00	3731.377
606.00	3767.964
607.00	3771.389
608.00	3775.272
609.00	3740.255
610.00	3782.654
611.00	3773.884
612.00	3728.171
613.00	3717.508
614.00	3750.853
615.00	3764.889
616.00	3762.092
617.00	3750.812
618.00	3707.619
619.00	3716.838
620.00	3728.389
621.00	3718.585
622.00	3724.058
623.00	3720.022
624.00	3678.079
625.00	3716.547
626.00	3660.123
627.00	3739.976
628.00	3700.403
629.00	3800.246
630.00	3698.104
631.00	3710.693
632.00	3716.721
633.00	3678.173
634.00	3686.927
635.00	3704.845
636.00	3658.759
637.00	3730.684
638.00	3614.931
639.00	3643.971
640.00	3595.856
641.00	3630.172
642.00	3644.555
643.00	3658.817
644.00	3652.475
645.00	3645.003
646.00	3687.228
647.00	3612.653
648.00	3653.087
649.00	3637.035
650.00	3643.223
651.00	3612.074
652.00	3589.969
653.00	3616.927
654.00	3677.981
655.00	3685.584
656.00	3629.845
657.00	3612.838
658.00	3566.357
659.00	3547.481
660.00	3572.263
661.00	3557.798
662.00	3519.934
663.00	3480.622
664.00	3522.085
665.00	3602.282
666.00	3421.290
667.00	3460.375
668.00	3432.433
669.00	3420.138
670.00	3395.612
671.00	3445.723
672.00	3397.410
673.00	3332.899
674.00	3372.685
675.00	3361.045
676.00	3250.342
677.00	3250.810
678.00	3186.088
679.00	3208.466
680.00	3139.052
681.00	3137.414
682.00	3142.769
683.00	3136.792
684.00	3119.104
685.00	3106.193
686.00	3012.245
687.00	3051.866
688.00	3032.109
689.00	2954.830
690.00	2951.441
691.00	2987.422
692.00	2936.019
693.00	2911.322
694.00	2902.349
695.00	2907.685
696.00	2881.174
697.00	2842.614
698.00	2823.490
699.00	2826.565
700.00	2738.989
701.00	2728.402
702.00	2671.512
703.00	2655.113
704.00	2672.659
705.00	2627.768
706.00	2636.975
707.00	2623.559
708.00	2616.456
709.00	2524.177
710.00	2528.366
711.00	2549.529
712.00	2494.741
713.00	2505.484
714.00	2455.182
715.00	2439.736
716.00	2450.442
717.00	2365.881
718.00	2338.003
719.00	2356.800
720.00	2361.214
721.00	2364.698
722.00	2313.898
723.00	2301.614
724.00	2286.554
725.00	2223.927
726.00	2244.175
727.00	2227.737
728.00	2240.527
729.00	2225.252
730.00	2168.837
731.00	2095.616
732.00	2107.220
733.00	2098.478
734.00	2072.641
735.00	2077.622
736.00	2032.262
737.00	1959.241
738.00	2028.755
739.00	1992.987
740.00	1925.765
741.00	1913.366
742.00	1911.595
743.00	1850.922
744.00	1849.416
745.00	1854.079
746.00	1803.010
747.00	1773.424
748.00	1722.692
749.00	1731.173
750.00	1682.949
751.00	1701.331
752.00	1683.121
753.00	1684.000
754.00	1667.407
755.00	1626.205
756.00	1617.484
757.00	1573.560
758.00	1559.047
759.00	1539.997
760.00	1499.495
761.00	1505.038
762.00	1495.198
763.00	1487.681
764.00	1471.738
765.00	1443.021
766.00	1419.662
767.00	1378.965
768.00	1360.212
769.00	1364.919
770.00	1326.450
771.00	1329.234
772.00	1312.492
773.00	1276.722
774.00	1270.073
775.00	1254.306
776.00	1236.021
777.00	1213.482
778.00	1199.856
779.00	1205.225
780.00	1176.551
781.00	1169.425
782.00	1205.646
783.00	1164.914
784.00	1184.562
785.00	1137.278
786.00	1133.961
787.00	1131.416
788.00	1121.666
789.00	1107.890
790.00	1116.387
791.00	1132.410
792.00	1105.483
793.00	1102.061
794.00	1127.405
795.00	1081.393
796.00	1084.391
797.00	1077.703
798.00	1074.749
799.00	1038.121
800.00	1056.477
801.00	1026.018
802.00	1001.289
803.00	989.090
804.00	987.166
805.00	966.010
806.00	949.014
807.00	937.863
808.00	902.608
809.00	903.682
810.00	900.543
811.00	896.866
812.00	879.781
813.00	876.543
814.00	878.195
815.00	862.997
816.00	841.281
817.00	825.460
818.00	845.435
819.00	822.617
820.00	819.501
821.00	790.988
822.00	789.133
823.00	784.702
824.00	767.819
825.00	744.500
826.00	745.269
827.00	731.856
828.00	723.509
829.00	698.292
830.00	715.790
831.00	688.294
832.00	677.677
833.00	671.393
834.00	666.249
835.00	648.850
836.00	649.562
837.00	633.709
838.00	626.783
839.00	622.947
840.00	611.142
841.00	602.611
842.00	592.089
843.00	585.079
844.00	584.009
845.00	573.867
846.00	568.201
847.00	566.845
848.00	561.782
849.00	550.467
850.00	544.013
851.00	541.527
852.00	533.243
853.00	514.899
854.00	514.670
855.00	504.579
856.00	504.087
857.00	504.112
858.00	501.720
859.00	499.374
860.00	500.372
861.00	483.921
862.00	485.750
863.00	475.700
864.00	469.739
865.00	466.271
866.00	462.808
867.00	464.702
868.00	448.133
869.00	445.977
870.00	438.541
871.00	438.114
872.00	426.197
873.00	434.337
874.00	428.753
875.00	422.737
876.00	411.620
877.00	413.664
878.00	410.948
879.00	410.019
880.00	404.638
881.00	399.143
882.00	400.150
883.00	392.767
884.00	392.084
885.00	391.466
886.00	386.236
887.00	384.877
888.00	385.540
889.00	374.559
890.00	377.211
891.00	379.752
892.00	372.639
893.00	372.611
894.00	368.345
895.00	371.732
896.00	369.490
897.00	366.280
898.00	367.615
899.00	368.284
900.00	365.565
901.00	364.796
902.00	357.726
903.00	352.654
904.00	358.237
905.00	354.471
906.00	354.286
907.00	354.375
908.00	353.368
909.00	341.904
910.00	343.007
911.00	337.536
912.00	333.874
913.00	334.777
914.00	331.920
915.00	330.333
916.00	327.062
917.00	324.140
918.00	320.111
919.00	317.372
920.00	311.381
921.00	312.749
922.00	311.824
923.00	308.969
924.00	302.693
925.00	298.563
926.00	295.576
927.00	290.632
928.00	290.878
929.00	290.981
930.00	285.900
931.00	284.753
932.00	284.740
933.00	282.770
934.00	277.304
935.00	283.548
936.00	278.899
937.00	276.436
938.00	273.738
939.00	274.690
940.00	271.503
941.00	269.595
942.00	270.407
943.00	265.393
944.00	267.671
945.00	265.460
946.00	265.899
947.00	260.616
948.00	262.130
949.00	263.600
950.00	256.957
951.00	255.127
952.00	256.847
953.00	254.103
954.00	255.688
955.00	254.128
956.00	251.545
957.00	251.075
958.00	252.707
959.00	249.838
960.00	251.626
961.00	246.289
962.00	248.679
963.00	249.998
964.00	245.678
965.00	247.886
966.00	244.305
967.00	244.034
968.00	242.787
969.00	241.819
970.00	240.328
971.00	241.693
972.00	238.154
973.00	237.690
974.00	239.765
975.00	239.312
976.00	238.162
977.00	236.865
978.00	236.391
979.00	234.292
980.00	237.963
981.00	233.353
982.00	235.237
983.00	234.342
984.00	233.435
985.00	231.635
986.00	233.021
987.00	233.987
988.00	232.125
989.00	230.710
990.00	230.961
991.00	230.272
992.00	231.895
993.00	231.315
994.00	229.160
995.00	231.361
996.00	228.017
997.00	227.264
998.00	230.920
999.00	228.229
1000.00	228.827
>>>>>End Spectral Data<<<<<
