SpectraSuite Data File
++++++++++++++++++++++++++++++++++++
Date: Thu Nov 20 12:47:37 CET 2014
User: admin
Dark Spectrum Present: Yes
Reference Spectrum Present: Yes
Number of Sampled Component Spectra: 1
Spectrometers: USB2G49547
Integration Time (usec): 120000 (USB2G49547)
Spectra Averaged: 8 (USB2G49547)
Boxcar Smoothing: 0 (USB2G49547)
Correct for Electrical Dark: No (USB2G49547)
Strobe/Lamp Enabled: No (USB2G49547)
Correct for Detector Non-linearity: No (USB2G49547)
Correct for Stray Light: No (USB2G49547)
Number of Pixels in Processed Spectrum: 651
>>>>>Begin Processed Spectral Data<<<<<
350.00	101.642
351.00	90.721
352.00	58.829
353.00	126.112
354.00	73.584
355.00	58.937
356.00	104.685
357.00	89.897
358.00	68.772
359.00	100.856
360.00	78.713
361.00	81.760
362.00	110.196
363.00	81.241
364.00	127.198
365.00	124.201
366.00	52.786
367.00	84.547
368.00	70.173
369.00	75.945
370.00	154.236
371.00	160.774
372.00	102.044
373.00	77.746
374.00	109.607
375.00	70.116
376.00	89.431
377.00	59.355
378.00	72.999
379.00	100.706
380.00	84.625
381.00	42.161
382.00	104.070
383.00	84.139
384.00	86.197
385.00	101.804
386.00	75.314
387.00	119.392
388.00	114.992
389.00	101.087
390.00	76.496
391.00	107.712
392.00	105.893
393.00	91.041
394.00	83.448
395.00	73.385
396.00	84.133
397.00	74.383
398.00	90.746
399.00	88.367
400.00	91.526
401.00	127.265
402.00	130.508
403.00	127.341
404.00	81.564
405.00	103.374
406.00	105.947
407.00	126.540
408.00	110.276
409.00	98.879
410.00	94.221
411.00	118.969
412.00	99.908
413.00	92.014
414.00	108.359
415.00	110.220
416.00	104.786
417.00	104.585
418.00	99.832
419.00	95.573
420.00	102.269
421.00	80.318
422.00	99.103
423.00	107.252
424.00	99.763
425.00	86.035
426.00	94.891
427.00	99.589
428.00	95.755
429.00	103.524
430.00	99.939
431.00	101.920
432.00	93.156
433.00	96.516
434.00	89.242
435.00	95.592
436.00	87.373
437.00	101.027
438.00	99.259
439.00	91.780
440.00	102.911
441.00	97.571
442.00	96.879
443.00	93.408
444.00	101.739
445.00	93.038
446.00	97.532
447.00	97.624
448.00	96.464
449.00	97.294
450.00	96.084
451.00	96.381
452.00	94.889
453.00	99.216
454.00	94.762
455.00	94.866
456.00	101.193
457.00	98.487
458.00	98.210
459.00	96.941
460.00	101.112
461.00	97.685
462.00	93.413
463.00	97.608
464.00	95.181
465.00	97.535
466.00	94.775
467.00	95.576
468.00	96.118
469.00	97.887
470.00	95.765
471.00	97.707
472.00	96.696
473.00	95.625
474.00	97.719
475.00	96.957
476.00	95.582
477.00	96.686
478.00	98.953
479.00	97.762
480.00	97.842
481.00	96.389
482.00	96.168
483.00	95.669
484.00	98.366
485.00	96.251
486.00	96.752
487.00	96.316
488.00	98.724
489.00	96.012
490.00	96.346
491.00	96.766
492.00	96.560
493.00	96.427
494.00	97.238
495.00	96.003
496.00	96.121
497.00	96.641
498.00	96.314
499.00	96.548
500.00	96.224
501.00	95.937
502.00	96.203
503.00	97.004
504.00	96.741
505.00	96.589
506.00	95.912
507.00	95.938
508.00	95.498
509.00	96.132
510.00	96.859
511.00	96.088
512.00	97.019
513.00	95.778
514.00	95.257
515.00	95.922
516.00	95.992
517.00	95.972
518.00	96.214
519.00	96.512
520.00	95.985
521.00	95.645
522.00	96.299
523.00	96.626
524.00	95.242
525.00	96.074
526.00	95.445
527.00	95.882
528.00	95.827
529.00	95.546
530.00	95.728
531.00	95.499
532.00	96.021
533.00	96.107
534.00	95.820
535.00	96.045
536.00	95.582
537.00	95.427
538.00	95.094
539.00	95.231
540.00	95.573
541.00	95.285
542.00	96.033
543.00	95.437
544.00	95.301
545.00	95.376
546.00	94.800
547.00	95.931
548.00	94.947
549.00	95.234
550.00	95.415
551.00	94.896
552.00	94.831
553.00	94.880
554.00	95.232
555.00	94.495
556.00	94.635
557.00	94.805
558.00	94.857
559.00	94.907
560.00	94.204
561.00	94.984
562.00	94.637
563.00	94.511
564.00	94.885
565.00	94.063
566.00	94.639
567.00	94.505
568.00	94.414
569.00	94.295
570.00	94.004
571.00	94.155
572.00	94.203
573.00	94.052
574.00	94.257
575.00	94.029
576.00	93.832
577.00	94.117
578.00	93.742
579.00	93.262
580.00	93.785
581.00	93.660
582.00	93.626
583.00	93.600
584.00	93.524
585.00	93.847
586.00	93.749
587.00	93.393
588.00	93.511
589.00	93.143
590.00	93.409
591.00	93.190
592.00	93.552
593.00	93.036
594.00	93.631
595.00	93.227
596.00	93.401
597.00	92.822
598.00	92.897
599.00	92.943
600.00	92.415
601.00	92.930
602.00	92.442
603.00	92.637
604.00	92.654
605.00	92.498
606.00	92.417
607.00	92.643
608.00	92.060
609.00	92.163
610.00	91.740
611.00	92.085
612.00	92.389
613.00	91.978
614.00	92.190
615.00	91.959
616.00	92.546
617.00	91.899
618.00	91.452
619.00	91.711
620.00	92.015
621.00	91.549
622.00	90.917
623.00	91.161
624.00	91.427
625.00	91.204
626.00	91.502
627.00	91.018
628.00	90.904
629.00	90.710
630.00	90.685
631.00	90.925
632.00	90.765
633.00	90.428
634.00	90.672
635.00	90.372
636.00	90.624
637.00	90.149
638.00	90.305
639.00	89.963
640.00	89.883
641.00	89.952
642.00	89.684
643.00	90.199
644.00	89.924
645.00	89.317
646.00	89.797
647.00	89.634
648.00	89.293
649.00	89.783
650.00	89.484
651.00	89.594
652.00	89.572
653.00	89.014
654.00	89.010
655.00	88.560
656.00	88.196
657.00	88.568
658.00	88.952
659.00	88.674
660.00	88.901
661.00	88.567
662.00	88.421
663.00	88.493
664.00	87.935
665.00	87.919
666.00	88.137
667.00	88.333
668.00	87.958
669.00	88.313
670.00	87.666
671.00	87.668
672.00	87.931
673.00	87.187
674.00	87.675
675.00	87.254
676.00	87.562
677.00	87.144
678.00	86.788
679.00	86.826
680.00	86.953
681.00	87.282
682.00	87.179
683.00	86.931
684.00	86.954
685.00	86.493
686.00	86.433
687.00	86.406
688.00	86.245
689.00	86.704
690.00	86.303
691.00	86.140
692.00	86.091
693.00	86.060
694.00	85.662
695.00	86.183
696.00	85.803
697.00	85.474
698.00	85.552
699.00	85.203
700.00	85.529
701.00	85.753
702.00	85.870
703.00	85.345
704.00	85.181
705.00	85.168
706.00	85.467
707.00	85.018
708.00	85.318
709.00	85.118
710.00	84.923
711.00	84.866
712.00	84.876
713.00	85.167
714.00	84.991
715.00	85.010
716.00	84.538
717.00	84.527
718.00	85.187
719.00	84.864
720.00	84.948
721.00	84.695
722.00	84.112
723.00	84.950
724.00	84.511
725.00	85.148
726.00	84.780
727.00	84.873
728.00	84.604
729.00	84.391
730.00	84.361
731.00	85.189
732.00	84.398
733.00	84.617
734.00	84.409
735.00	84.725
736.00	84.545
737.00	84.677
738.00	84.677
739.00	85.005
740.00	84.106
741.00	84.576
742.00	84.268
743.00	84.587
744.00	84.585
745.00	84.258
746.00	84.696
747.00	84.004
748.00	84.269
749.00	83.966
750.00	84.876
751.00	83.779
752.00	84.206
753.00	84.760
754.00	84.055
755.00	83.250
756.00	83.690
757.00	84.440
758.00	84.052
759.00	83.954
760.00	84.991
761.00	84.011
762.00	84.355
763.00	83.608
764.00	83.875
765.00	83.702
766.00	83.764
767.00	84.468
768.00	84.330
769.00	84.371
770.00	84.535
771.00	84.349
772.00	84.182
773.00	84.257
774.00	84.661
775.00	83.925
776.00	84.187
777.00	84.216
778.00	84.717
779.00	85.032
780.00	85.199
781.00	85.111
782.00	84.126
783.00	84.290
784.00	83.702
785.00	84.678
786.00	84.730
787.00	85.229
788.00	85.569
789.00	85.646
790.00	85.187
791.00	84.335
792.00	85.291
793.00	84.981
794.00	84.710
795.00	86.229
796.00	84.836
797.00	84.949
798.00	85.131
799.00	85.664
800.00	84.858
801.00	85.729
802.00	85.812
803.00	85.792
804.00	84.966
805.00	85.762
806.00	85.974
807.00	86.021
808.00	84.933
809.00	85.825
810.00	86.095
811.00	85.127
812.00	86.866
813.00	85.510
814.00	85.922
815.00	85.385
816.00	85.862
817.00	87.359
818.00	86.361
819.00	86.168
820.00	86.117
821.00	86.492
822.00	86.873
823.00	85.776
824.00	87.574
825.00	87.429
826.00	87.630
827.00	86.735
828.00	87.202
829.00	87.469
830.00	86.837
831.00	87.897
832.00	87.601
833.00	87.360
834.00	88.050
835.00	87.645
836.00	87.029
837.00	88.628
838.00	87.919
839.00	89.735
840.00	87.506
841.00	88.526
842.00	87.972
843.00	87.451
844.00	87.459
845.00	87.026
846.00	89.196
847.00	90.045
848.00	88.860
849.00	87.107
850.00	89.241
851.00	88.344
852.00	87.459
853.00	89.021
854.00	86.988
855.00	87.890
856.00	88.509
857.00	89.385
858.00	88.779
859.00	87.486
860.00	88.649
861.00	88.929
862.00	89.294
863.00	89.397
864.00	89.067
865.00	88.792
866.00	87.651
867.00	88.452
868.00	88.150
869.00	87.583
870.00	89.550
871.00	90.216
872.00	92.206
873.00	91.251
874.00	88.610
875.00	89.183
876.00	90.479
877.00	89.708
878.00	90.392
879.00	87.947
880.00	89.588
881.00	88.718
882.00	87.292
883.00	88.486
884.00	91.254
885.00	89.631
886.00	90.712
887.00	90.937
888.00	86.225
889.00	90.750
890.00	87.256
891.00	89.426
892.00	88.935
893.00	86.249
894.00	89.886
895.00	92.125
896.00	89.598
897.00	89.781
898.00	86.317
899.00	87.687
900.00	88.904
901.00	88.438
902.00	87.559
903.00	89.856
904.00	88.538
905.00	90.030
906.00	89.873
907.00	88.561
908.00	89.538
909.00	91.788
910.00	91.513
911.00	90.022
912.00	91.391
913.00	89.757
914.00	88.311
915.00	88.915
916.00	90.639
917.00	91.282
918.00	89.424
919.00	89.371
920.00	92.731
921.00	86.064
922.00	90.505
923.00	89.554
924.00	90.059
925.00	91.533
926.00	90.681
927.00	91.023
928.00	91.165
929.00	84.909
930.00	92.668
931.00	91.196
932.00	89.143
933.00	91.511
934.00	95.081
935.00	85.762
936.00	89.667
937.00	92.831
938.00	95.104
939.00	86.881
940.00	90.402
941.00	89.482
942.00	86.379
943.00	94.188
944.00	93.085
945.00	90.857
946.00	82.748
947.00	94.927
948.00	87.471
949.00	86.056
950.00	94.236
951.00	96.615
952.00	95.085
953.00	96.493
954.00	92.268
955.00	89.954
956.00	89.908
957.00	94.639
958.00	93.977
959.00	95.899
960.00	88.220
961.00	101.618
962.00	88.820
963.00	92.443
964.00	98.601
965.00	92.646
966.00	101.170
967.00	83.195
968.00	90.981
969.00	93.632
970.00	98.472
971.00	90.065
972.00	99.822
973.00	102.954
974.00	95.065
975.00	88.178
976.00	84.544
977.00	88.060
978.00	93.489
979.00	105.779
980.00	87.830
981.00	93.554
982.00	89.029
983.00	93.986
984.00	87.541
985.00	96.893
986.00	76.992
987.00	93.208
988.00	94.680
989.00	97.226
990.00	91.530
991.00	96.833
992.00	89.221
993.00	77.805
994.00	73.191
995.00	73.767
996.00	114.377
997.00	115.272
998.00	76.867
999.00	82.491
1000.00	95.412
>>>>>End Processed Spectral Data<<<<<
