SpectraSuite Data File
++++++++++++++++++++++++++++++++++++
Date: Thu Nov 20 12:48:17 CET 2014
User: admin
Dark Spectrum Present: Yes
Reference Spectrum Present: Yes
Number of Sampled Component Spectra: 1
Spectrometers: USB2G49547
Integration Time (usec): 120000 (USB2G49547)
Spectra Averaged: 8 (USB2G49547)
Boxcar Smoothing: 0 (USB2G49547)
Correct for Electrical Dark: No (USB2G49547)
Strobe/Lamp Enabled: No (USB2G49547)
Correct for Detector Non-linearity: No (USB2G49547)
Correct for Stray Light: No (USB2G49547)
Number of Pixels in Processed Spectrum: 651
>>>>>Begin Processed Spectral Data<<<<<
350.00	103.053
351.00	109.597
352.00	158.399
353.00	69.856
354.00	109.548
355.00	434.811
356.00	61.265
357.00	87.317
358.00	74.989
359.00	104.242
360.00	93.455
361.00	182.892
362.00	48.700
363.00	111.242
364.00	133.411
365.00	72.570
366.00	143.515
367.00	91.119
368.00	101.976
369.00	89.905
370.00	164.670
371.00	93.451
372.00	84.337
373.00	86.206
374.00	146.847
375.00	93.970
376.00	48.475
377.00	55.895
378.00	93.022
379.00	112.097
380.00	145.038
381.00	105.168
382.00	65.174
383.00	96.207
384.00	72.502
385.00	160.462
386.00	129.035
387.00	56.198
388.00	66.981
389.00	101.043
390.00	86.765
391.00	104.666
392.00	85.806
393.00	90.375
394.00	140.408
395.00	101.314
396.00	76.851
397.00	100.813
398.00	114.854
399.00	82.972
400.00	117.877
401.00	76.272
402.00	80.009
403.00	109.735
404.00	95.807
405.00	97.769
406.00	136.770
407.00	98.906
408.00	101.632
409.00	112.645
410.00	97.252
411.00	105.084
412.00	102.664
413.00	95.822
414.00	92.364
415.00	99.152
416.00	97.862
417.00	91.065
418.00	109.983
419.00	87.633
420.00	105.981
421.00	112.253
422.00	95.585
423.00	84.445
424.00	85.899
425.00	105.100
426.00	92.213
427.00	97.875
428.00	101.331
429.00	95.254
430.00	98.300
431.00	97.675
432.00	97.649
433.00	107.529
434.00	93.888
435.00	103.275
436.00	94.381
437.00	97.484
438.00	99.421
439.00	97.401
440.00	95.227
441.00	99.609
442.00	100.765
443.00	101.768
444.00	101.854
445.00	103.622
446.00	102.051
447.00	95.188
448.00	98.349
449.00	97.625
450.00	97.892
451.00	96.276
452.00	97.749
453.00	97.694
454.00	98.311
455.00	100.911
456.00	98.539
457.00	100.282
458.00	97.353
459.00	96.020
460.00	100.686
461.00	99.440
462.00	98.041
463.00	97.562
464.00	98.606
465.00	97.924
466.00	100.136
467.00	98.948
468.00	97.320
469.00	97.058
470.00	100.165
471.00	99.968
472.00	98.226
473.00	99.229
474.00	99.399
475.00	98.421
476.00	98.795
477.00	98.102
478.00	98.104
479.00	98.066
480.00	98.355
481.00	99.359
482.00	98.912
483.00	98.268
484.00	98.662
485.00	98.578
486.00	98.593
487.00	97.929
488.00	98.992
489.00	97.912
490.00	98.568
491.00	98.377
492.00	99.208
493.00	98.959
494.00	98.627
495.00	98.315
496.00	98.544
497.00	98.875
498.00	98.103
499.00	98.956
500.00	98.608
501.00	98.332
502.00	98.741
503.00	98.546
504.00	98.618
505.00	99.331
506.00	98.261
507.00	98.022
508.00	97.798
509.00	98.614
510.00	98.548
511.00	97.904
512.00	97.455
513.00	98.586
514.00	98.114
515.00	98.242
516.00	98.042
517.00	98.808
518.00	98.378
519.00	97.592
520.00	97.804
521.00	97.309
522.00	97.937
523.00	97.313
524.00	98.361
525.00	98.389
526.00	98.430
527.00	97.945
528.00	98.675
529.00	98.001
530.00	97.723
531.00	97.989
532.00	98.047
533.00	97.589
534.00	97.550
535.00	97.909
536.00	98.267
537.00	97.349
538.00	97.720
539.00	97.586
540.00	97.978
541.00	97.753
542.00	98.016
543.00	97.546
544.00	97.760
545.00	97.928
546.00	97.803
547.00	96.974
548.00	96.963
549.00	97.048
550.00	97.045
551.00	96.649
552.00	97.562
553.00	97.678
554.00	97.315
555.00	97.600
556.00	97.181
557.00	97.491
558.00	96.926
559.00	96.851
560.00	97.128
561.00	97.907
562.00	97.603
563.00	96.898
564.00	97.305
565.00	96.989
566.00	96.956
567.00	96.813
568.00	96.488
569.00	97.089
570.00	97.055
571.00	97.095
572.00	96.253
573.00	96.535
574.00	96.753
575.00	96.319
576.00	96.436
577.00	96.457
578.00	96.765
579.00	96.706
580.00	96.630
581.00	96.028
582.00	96.032
583.00	96.498
584.00	96.018
585.00	96.187
586.00	95.788
587.00	95.696
588.00	95.777
589.00	95.812
590.00	95.945
591.00	95.340
592.00	95.302
593.00	95.792
594.00	95.341
595.00	95.751
596.00	95.700
597.00	95.551
598.00	95.495
599.00	95.236
600.00	95.421
601.00	95.496
602.00	95.384
603.00	95.078
604.00	94.980
605.00	95.004
606.00	94.574
607.00	94.703
608.00	94.572
609.00	94.260
610.00	94.683
611.00	94.280
612.00	94.446
613.00	94.532
614.00	94.179
615.00	94.094
616.00	93.940
617.00	94.009
618.00	94.353
619.00	94.057
620.00	93.975
621.00	93.907
622.00	93.472
623.00	93.348
624.00	93.338
625.00	93.707
626.00	93.397
627.00	93.077
628.00	92.794
629.00	92.722
630.00	93.166
631.00	92.443
632.00	92.784
633.00	92.528
634.00	92.835
635.00	92.234
636.00	92.854
637.00	92.505
638.00	92.485
639.00	92.576
640.00	92.661
641.00	92.032
642.00	91.944
643.00	92.265
644.00	91.798
645.00	91.326
646.00	91.868
647.00	91.234
648.00	91.507
649.00	91.039
650.00	90.859
651.00	91.057
652.00	91.244
653.00	90.814
654.00	90.365
655.00	90.813
656.00	90.915
657.00	90.494
658.00	90.640
659.00	90.127
660.00	90.200
661.00	90.289
662.00	90.011
663.00	90.392
664.00	90.053
665.00	90.046
666.00	89.808
667.00	89.337
668.00	89.273
669.00	89.133
670.00	89.290
671.00	89.053
672.00	89.070
673.00	89.166
674.00	88.445
675.00	88.576
676.00	88.390
677.00	88.465
678.00	88.455
679.00	87.631
680.00	87.841
681.00	87.843
682.00	87.928
683.00	87.636
684.00	87.588
685.00	87.545
686.00	87.339
687.00	87.196
688.00	87.076
689.00	87.107
690.00	87.462
691.00	86.952
692.00	86.634
693.00	86.626
694.00	86.649
695.00	86.439
696.00	86.199
697.00	86.489
698.00	86.441
699.00	86.142
700.00	86.157
701.00	85.906
702.00	85.658
703.00	85.499
704.00	85.888
705.00	85.301
706.00	85.810
707.00	84.896
708.00	85.394
709.00	85.817
710.00	85.678
711.00	85.339
712.00	84.527
713.00	84.555
714.00	84.673
715.00	85.495
716.00	84.307
717.00	85.585
718.00	85.175
719.00	84.818
720.00	84.020
721.00	84.864
722.00	84.612
723.00	83.913
724.00	83.760
725.00	84.325
726.00	84.815
727.00	84.675
728.00	85.049
729.00	84.697
730.00	84.341
731.00	84.545
732.00	84.704
733.00	84.540
734.00	84.113
735.00	84.400
736.00	84.406
737.00	84.994
738.00	84.662
739.00	84.716
740.00	83.808
741.00	84.193
742.00	84.391
743.00	84.373
744.00	84.576
745.00	84.018
746.00	83.561
747.00	84.530
748.00	84.198
749.00	84.399
750.00	84.659
751.00	84.812
752.00	84.008
753.00	83.572
754.00	82.969
755.00	83.917
756.00	84.390
757.00	84.032
758.00	83.645
759.00	83.469
760.00	84.303
761.00	83.648
762.00	83.249
763.00	83.197
764.00	84.179
765.00	83.357
766.00	83.566
767.00	84.008
768.00	84.272
769.00	82.448
770.00	84.078
771.00	83.970
772.00	83.484
773.00	83.665
774.00	83.498
775.00	84.133
776.00	85.093
777.00	84.255
778.00	84.357
779.00	84.254
780.00	83.363
781.00	83.091
782.00	84.039
783.00	84.093
784.00	83.372
785.00	84.295
786.00	83.764
787.00	84.062
788.00	84.345
789.00	82.822
790.00	85.011
791.00	84.610
792.00	84.266
793.00	84.065
794.00	83.474
795.00	83.993
796.00	83.751
797.00	84.320
798.00	84.972
799.00	84.765
800.00	84.170
801.00	84.338
802.00	84.675
803.00	83.924
804.00	84.426
805.00	84.701
806.00	83.835
807.00	84.237
808.00	85.091
809.00	84.588
810.00	84.865
811.00	86.116
812.00	84.452
813.00	85.358
814.00	85.301
815.00	85.809
816.00	85.413
817.00	85.316
818.00	85.467
819.00	85.326
820.00	85.301
821.00	85.632
822.00	86.610
823.00	85.597
824.00	86.193
825.00	86.051
826.00	86.029
827.00	87.218
828.00	85.297
829.00	86.525
830.00	85.920
831.00	87.477
832.00	85.840
833.00	88.169
834.00	86.316
835.00	86.127
836.00	86.765
837.00	87.074
838.00	87.277
839.00	87.709
840.00	86.103
841.00	87.196
842.00	88.304
843.00	86.787
844.00	86.843
845.00	87.592
846.00	86.856
847.00	87.914
848.00	88.114
849.00	87.672
850.00	87.826
851.00	88.731
852.00	87.778
853.00	86.034
854.00	87.002
855.00	87.062
856.00	89.896
857.00	85.657
858.00	89.354
859.00	87.622
860.00	86.134
861.00	87.272
862.00	87.131
863.00	87.394
864.00	88.291
865.00	86.898
866.00	85.789
867.00	86.363
868.00	87.248
869.00	88.087
870.00	86.870
871.00	88.707
872.00	87.830
873.00	86.614
874.00	88.076
875.00	88.045
876.00	87.580
877.00	87.904
878.00	89.575
879.00	88.647
880.00	86.110
881.00	87.606
882.00	86.550
883.00	85.967
884.00	89.003
885.00	87.503
886.00	88.618
887.00	88.538
888.00	85.676
889.00	86.721
890.00	89.233
891.00	89.375
892.00	87.432
893.00	89.503
894.00	88.391
895.00	89.148
896.00	87.624
897.00	89.927
898.00	85.658
899.00	87.489
900.00	89.761
901.00	85.265
902.00	85.880
903.00	85.252
904.00	86.680
905.00	87.888
906.00	88.122
907.00	85.328
908.00	87.918
909.00	86.292
910.00	92.828
911.00	89.370
912.00	89.187
913.00	90.680
914.00	85.397
915.00	88.421
916.00	88.043
917.00	91.120
918.00	85.679
919.00	85.654
920.00	89.626
921.00	88.563
922.00	85.037
923.00	86.685
924.00	86.135
925.00	89.975
926.00	90.428
927.00	90.897
928.00	85.601
929.00	87.771
930.00	86.410
931.00	86.323
932.00	89.531
933.00	92.051
934.00	85.090
935.00	88.082
936.00	85.493
937.00	90.840
938.00	87.291
939.00	91.193
940.00	89.458
941.00	83.563
942.00	88.771
943.00	90.339
944.00	88.971
945.00	86.914
946.00	87.990
947.00	89.214
948.00	88.115
949.00	85.924
950.00	88.446
951.00	89.463
952.00	81.707
953.00	90.109
954.00	90.944
955.00	85.903
956.00	99.754
957.00	86.789
958.00	86.940
959.00	85.553
960.00	90.968
961.00	92.259
962.00	86.791
963.00	96.989
964.00	89.799
965.00	88.565
966.00	84.684
967.00	101.503
968.00	93.352
969.00	90.039
970.00	91.553
971.00	91.715
972.00	98.063
973.00	117.330
974.00	83.302
975.00	86.303
976.00	83.686
977.00	98.813
978.00	88.547
979.00	80.642
980.00	105.548
981.00	88.669
982.00	92.686
983.00	90.374
984.00	121.416
985.00	94.356
986.00	93.136
987.00	111.856
988.00	107.971
989.00	97.908
990.00	88.803
991.00	90.290
992.00	90.455
993.00	122.893
994.00	113.719
995.00	79.698
996.00	95.582
997.00	102.743
998.00	85.428
999.00	85.369
1000.00	85.979
>>>>>End Processed Spectral Data<<<<<
