SpectraSuite Data File
++++++++++++++++++++++++++++++++++++
Date: Thu Nov 20 12:52:50 CET 2014
User: admin
Spectrometer Serial Number: USB2G49547
Spectrometer Channel: 0
Integration Time (usec): 120000
Spectra Averaged: 8
Boxcar Smoothing: 0
Correct for Electrical Dark: No
Strobe/Lamp Enabled: No
Correct for Detector Non-linearity: No
Correct for Stray Light: No
Number of Pixels in Spectrum: 651
>>>>>Begin Spectral Data<<<<<
350.00	220.118
351.00	221.547
352.00	221.179
353.00	222.379
354.00	221.733
355.00	220.944
356.00	221.991
357.00	222.159
358.00	220.714
359.00	220.637
360.00	223.045
361.00	222.520
362.00	223.094
363.00	222.775
364.00	223.878
365.00	223.164
366.00	223.273
367.00	222.420
368.00	222.515
369.00	220.733
370.00	225.939
371.00	223.141
372.00	225.717
373.00	223.612
374.00	225.447
375.00	223.599
376.00	223.791
377.00	222.120
378.00	224.457
379.00	225.960
380.00	224.904
381.00	226.017
382.00	225.065
383.00	225.148
384.00	224.792
385.00	227.962
386.00	224.743
387.00	225.709
388.00	226.361
389.00	225.276
390.00	225.661
391.00	226.611
392.00	223.881
393.00	225.873
394.00	226.888
395.00	225.537
396.00	226.770
397.00	226.900
398.00	228.224
399.00	229.110
400.00	228.281
401.00	227.479
402.00	226.689
403.00	229.609
404.00	228.607
405.00	227.839
406.00	229.931
407.00	231.271
408.00	235.555
409.00	230.836
410.00	234.135
411.00	231.516
412.00	232.088
413.00	231.249
414.00	234.475
415.00	235.896
416.00	235.661
417.00	237.125
418.00	235.030
419.00	237.568
420.00	237.808
421.00	239.673
422.00	238.908
423.00	238.332
424.00	240.657
425.00	242.335
426.00	244.659
427.00	248.197
428.00	244.909
429.00	246.341
430.00	247.658
431.00	248.578
432.00	250.295
433.00	254.718
434.00	252.753
435.00	258.154
436.00	255.952
437.00	258.696
438.00	261.490
439.00	261.789
440.00	267.583
441.00	267.492
442.00	270.816
443.00	274.086
444.00	288.217
445.00	278.995
446.00	277.640
447.00	282.165
448.00	283.957
449.00	286.709
450.00	288.353
451.00	292.817
452.00	295.212
453.00	297.801
454.00	302.163
455.00	303.655
456.00	310.664
457.00	313.665
458.00	321.332
459.00	324.320
460.00	328.495
461.00	335.485
462.00	336.072
463.00	344.092
464.00	346.372
465.00	357.097
466.00	362.605
467.00	372.369
468.00	382.748
469.00	391.723
470.00	403.245
471.00	411.904
472.00	423.622
473.00	431.699
474.00	444.147
475.00	463.380
476.00	480.999
477.00	495.031
478.00	524.387
479.00	536.824
480.00	564.533
481.00	576.118
482.00	606.683
483.00	631.878
484.00	669.386
485.00	675.046
486.00	707.769
487.00	740.106
488.00	767.962
489.00	798.953
490.00	825.821
491.00	881.157
492.00	901.856
493.00	921.955
494.00	981.555
495.00	1031.814
496.00	1043.792
497.00	1101.122
498.00	1082.983
499.00	1152.456
500.00	1175.298
501.00	1196.702
502.00	1257.134
503.00	1363.727
504.00	1422.295
505.00	1441.691
506.00	1472.247
507.00	1489.291
508.00	1504.318
509.00	1558.888
510.00	1596.802
511.00	1641.726
512.00	1668.426
513.00	1726.224
514.00	1726.562
515.00	1768.889
516.00	1815.633
517.00	1828.064
518.00	1888.429
519.00	1944.732
520.00	1985.230
521.00	2051.229
522.00	2061.524
523.00	2061.686
524.00	2120.172
525.00	2143.743
526.00	2200.287
527.00	2252.867
528.00	2288.933
529.00	2293.692
530.00	2326.125
531.00	2388.834
532.00	2445.164
533.00	2463.924
534.00	2512.518
535.00	2548.840
536.00	2544.150
537.00	2557.623
538.00	2600.274
539.00	2651.522
540.00	2685.904
541.00	2749.728
542.00	2764.263
543.00	2799.054
544.00	2849.536
545.00	2848.397
546.00	2836.664
547.00	2890.020
548.00	2878.242
549.00	2947.838
550.00	2975.389
551.00	2949.255
552.00	3032.103
553.00	3007.468
554.00	3000.662
555.00	3079.750
556.00	3055.813
557.00	3123.355
558.00	3094.365
559.00	3167.323
560.00	3168.523
561.00	3167.095
562.00	3174.397
563.00	3162.963
564.00	3190.936
565.00	3187.685
566.00	3240.626
567.00	3244.699
568.00	3245.068
569.00	3249.272
570.00	3292.890
571.00	3306.572
572.00	3309.028
573.00	3342.029
574.00	3329.706
575.00	3368.969
576.00	3327.814
577.00	3346.022
578.00	3359.557
579.00	3384.908
580.00	3472.034
581.00	3427.404
582.00	3482.369
583.00	3450.812
584.00	3492.769
585.00	3514.261
586.00	3519.197
587.00	3517.545
588.00	3514.760
589.00	3515.170
590.00	3553.409
591.00	3587.949
592.00	3482.947
593.00	3579.284
594.00	3599.306
595.00	3626.839
596.00	3594.633
597.00	3640.702
598.00	3616.418
599.00	3587.659
600.00	3641.561
601.00	3643.510
602.00	3700.959
603.00	3637.881
604.00	3687.818
605.00	3666.964
606.00	3727.978
607.00	3737.817
608.00	3698.650
609.00	3695.207
610.00	3703.085
611.00	3684.154
612.00	3673.548
613.00	3652.687
614.00	3687.267
615.00	3700.553
616.00	3705.100
617.00	3695.527
618.00	3641.486
619.00	3680.449
620.00	3680.485
621.00	3624.267
622.00	3655.970
623.00	3653.152
624.00	3599.418
625.00	3672.504
626.00	3607.571
627.00	3696.421
628.00	3632.513
629.00	3732.460
630.00	3628.293
631.00	3631.805
632.00	3652.467
633.00	3613.099
634.00	3645.004
635.00	3620.447
636.00	3610.297
637.00	3636.267
638.00	3558.075
639.00	3585.763
640.00	3566.314
641.00	3613.714
642.00	3594.638
643.00	3592.548
644.00	3598.768
645.00	3572.688
646.00	3640.380
647.00	3559.539
648.00	3616.556
649.00	3597.348
650.00	3581.876
651.00	3543.603
652.00	3555.935
653.00	3544.360
654.00	3603.436
655.00	3599.943
656.00	3569.547
657.00	3554.882
658.00	3520.679
659.00	3497.843
660.00	3545.986
661.00	3493.616
662.00	3446.957
663.00	3422.525
664.00	3449.010
665.00	3509.549
666.00	3351.223
667.00	3412.418
668.00	3405.220
669.00	3412.851
670.00	3374.033
671.00	3407.225
672.00	3338.703
673.00	3294.667
674.00	3292.185
675.00	3300.738
676.00	3191.882
677.00	3226.966
678.00	3127.341
679.00	3156.593
680.00	3070.381
681.00	3107.806
682.00	3114.520
683.00	3066.515
684.00	3081.301
685.00	3068.316
686.00	2997.165
687.00	3020.282
688.00	2988.637
689.00	2937.188
690.00	2909.082
691.00	2937.252
692.00	2881.942
693.00	2875.988
694.00	2856.012
695.00	2882.813
696.00	2857.599
697.00	2828.526
698.00	2770.138
699.00	2778.316
700.00	2699.701
701.00	2661.248
702.00	2667.598
703.00	2628.607
704.00	2642.126
705.00	2591.044
706.00	2593.871
707.00	2600.179
708.00	2582.805
709.00	2504.863
710.00	2502.900
711.00	2496.354
712.00	2488.992
713.00	2480.223
714.00	2432.542
715.00	2405.362
716.00	2410.637
717.00	2324.590
718.00	2308.840
719.00	2315.425
720.00	2325.792
721.00	2327.750
722.00	2283.358
723.00	2259.646
724.00	2252.045
725.00	2202.840
726.00	2196.435
727.00	2192.664
728.00	2197.866
729.00	2182.907
730.00	2138.615
731.00	2062.209
732.00	2092.761
733.00	2085.817
734.00	2046.798
735.00	2039.257
736.00	2004.684
737.00	1961.641
738.00	2009.961
739.00	1986.312
740.00	1908.203
741.00	1903.200
742.00	1905.615
743.00	1841.440
744.00	1815.456
745.00	1829.703
746.00	1777.967
747.00	1755.690
748.00	1706.418
749.00	1721.735
750.00	1674.317
751.00	1678.616
752.00	1660.467
753.00	1668.399
754.00	1655.914
755.00	1615.595
756.00	1585.374
757.00	1563.816
758.00	1529.803
759.00	1543.706
760.00	1492.086
761.00	1505.781
762.00	1468.746
763.00	1468.721
764.00	1445.351
765.00	1424.399
766.00	1401.922
767.00	1363.751
768.00	1351.058
769.00	1346.930
770.00	1311.754
771.00	1318.741
772.00	1302.435
773.00	1259.549
774.00	1271.636
775.00	1239.091
776.00	1231.772
777.00	1210.267
778.00	1197.871
779.00	1202.724
780.00	1178.434
781.00	1146.295
782.00	1188.704
783.00	1141.641
784.00	1160.418
785.00	1131.711
786.00	1123.820
787.00	1134.816
788.00	1124.987
789.00	1097.144
790.00	1113.458
791.00	1115.596
792.00	1102.356
793.00	1098.479
794.00	1115.376
795.00	1082.881
796.00	1078.255
797.00	1061.925
798.00	1067.363
799.00	1027.300
800.00	1051.888
801.00	1012.130
802.00	994.411
803.00	980.315
804.00	978.222
805.00	960.806
806.00	939.879
807.00	932.052
808.00	893.884
809.00	894.485
810.00	896.910
811.00	904.180
812.00	876.359
813.00	872.692
814.00	870.403
815.00	846.490
816.00	842.486
817.00	816.204
818.00	835.569
819.00	813.307
820.00	818.871
821.00	787.755
822.00	790.399
823.00	775.056
824.00	766.683
825.00	750.442
826.00	747.287
827.00	722.458
828.00	721.575
829.00	698.678
830.00	701.622
831.00	681.311
832.00	665.345
833.00	671.866
834.00	661.986
835.00	642.553
836.00	642.556
837.00	625.769
838.00	620.890
839.00	629.611
840.00	610.255
841.00	600.818
842.00	589.514
843.00	579.168
844.00	577.557
845.00	566.483
846.00	565.943
847.00	570.573
848.00	559.123
849.00	542.368
850.00	543.067
851.00	536.080
852.00	527.665
853.00	519.171
854.00	512.769
855.00	507.406
856.00	500.831
857.00	496.592
858.00	501.786
859.00	490.086
860.00	498.121
861.00	480.723
862.00	482.001
863.00	473.440
864.00	462.967
865.00	461.734
866.00	459.207
867.00	460.372
868.00	443.996
869.00	440.744
870.00	443.332
871.00	438.608
872.00	429.754
873.00	431.987
874.00	422.536
875.00	419.368
876.00	415.531
877.00	411.533
878.00	407.188
879.00	405.620
880.00	396.488
881.00	396.828
882.00	398.674
883.00	389.015
884.00	390.861
885.00	390.540
886.00	383.990
887.00	388.727
888.00	385.325
889.00	378.414
890.00	372.940
891.00	378.865
892.00	373.064
893.00	368.491
894.00	366.766
895.00	370.767
896.00	370.762
897.00	364.259
898.00	361.794
899.00	364.048
900.00	362.295
901.00	362.598
902.00	355.032
903.00	351.975
904.00	350.843
905.00	355.537
906.00	351.638
907.00	352.051
908.00	351.625
909.00	344.274
910.00	342.662
911.00	336.453
912.00	335.359
913.00	335.142
914.00	333.074
915.00	328.788
916.00	324.767
917.00	322.684
918.00	318.551
919.00	317.445
920.00	314.064
921.00	314.616
922.00	313.704
923.00	304.552
924.00	304.199
925.00	297.959
926.00	296.547
927.00	293.985
928.00	295.233
929.00	290.848
930.00	288.467
931.00	284.675
932.00	283.902
933.00	281.287
934.00	275.991
935.00	281.949
936.00	279.231
937.00	276.881
938.00	273.818
939.00	274.879
940.00	269.728
941.00	269.395
942.00	268.324
943.00	268.748
944.00	269.114
945.00	268.035
946.00	263.563
947.00	260.373
948.00	260.618
949.00	261.914
950.00	257.975
951.00	256.626
952.00	257.917
953.00	256.049
954.00	258.536
955.00	255.680
956.00	252.799
957.00	251.563
958.00	251.810
959.00	252.415
960.00	250.436
961.00	250.525
962.00	247.953
963.00	254.608
964.00	246.644
965.00	247.576
966.00	246.788
967.00	241.877
968.00	242.224
969.00	242.259
970.00	241.438
971.00	241.836
972.00	239.069
973.00	241.351
974.00	238.661
975.00	237.734
976.00	239.749
977.00	237.873
978.00	237.579
979.00	235.236
980.00	238.325
981.00	234.587
982.00	234.381
983.00	235.426
984.00	236.818
985.00	232.477
986.00	233.138
987.00	233.120
988.00	232.272
989.00	230.061
990.00	233.868
991.00	232.295
992.00	231.363
993.00	231.676
994.00	231.844
995.00	229.148
996.00	229.060
997.00	230.097
998.00	230.116
999.00	227.345
1000.00	229.649
>>>>>End Spectral Data<<<<<
