SpectraSuite Data File
++++++++++++++++++++++++++++++++++++
Date: Thu Nov 20 12:54:31 CET 2014
User: admin
Dark Spectrum Present: Yes
Reference Spectrum Present: Yes
Number of Sampled Component Spectra: 1
Spectrometers: USB2G49547
Integration Time (usec): 120000 (USB2G49547)
Spectra Averaged: 8 (USB2G49547)
Boxcar Smoothing: 0 (USB2G49547)
Correct for Electrical Dark: No (USB2G49547)
Strobe/Lamp Enabled: No (USB2G49547)
Correct for Detector Non-linearity: No (USB2G49547)
Correct for Stray Light: No (USB2G49547)
Number of Pixels in Processed Spectrum: 651
>>>>>Begin Processed Spectral Data<<<<<
350.00	96.851
351.00	111.784
352.00	134.793
353.00	88.091
354.00	84.432
355.00	119.817
356.00	129.686
357.00	69.481
358.00	89.540
359.00	137.967
360.00	91.770
361.00	138.428
362.00	93.183
363.00	109.792
364.00	48.323
365.00	106.277
366.00	90.812
367.00	106.002
368.00	84.050
369.00	203.973
370.00	87.251
371.00	129.417
372.00	92.784
373.00	102.276
374.00	97.154
375.00	118.363
376.00	60.758
377.00	202.299
378.00	99.681
379.00	94.254
380.00	100.464
381.00	83.903
382.00	120.372
383.00	104.615
384.00	108.139
385.00	59.651
386.00	88.022
387.00	111.191
388.00	110.891
389.00	104.913
390.00	105.765
391.00	95.856
392.00	142.123
393.00	80.315
394.00	110.651
395.00	106.424
396.00	115.904
397.00	109.000
398.00	127.903
399.00	55.149
400.00	65.964
401.00	112.832
402.00	161.868
403.00	109.621
404.00	87.531
405.00	110.026
406.00	93.145
407.00	116.610
408.00	118.295
409.00	112.233
410.00	96.316
411.00	101.176
412.00	96.471
413.00	103.348
414.00	97.794
415.00	82.692
416.00	97.409
417.00	106.120
418.00	111.072
419.00	95.737
420.00	97.053
421.00	92.171
422.00	90.585
423.00	98.540
424.00	103.827
425.00	90.168
426.00	95.351
427.00	85.575
428.00	104.772
429.00	103.863
430.00	96.683
431.00	94.150
432.00	102.784
433.00	89.212
434.00	106.528
435.00	98.401
436.00	97.500
437.00	107.507
438.00	99.569
439.00	101.861
440.00	98.006
441.00	97.925
442.00	97.353
443.00	96.180
444.00	95.638
445.00	98.084
446.00	98.228
447.00	96.952
448.00	97.234
449.00	96.202
450.00	99.167
451.00	97.171
452.00	100.524
453.00	95.284
454.00	99.306
455.00	97.880
456.00	101.033
457.00	96.929
458.00	96.817
459.00	99.513
460.00	98.164
461.00	95.237
462.00	98.667
463.00	96.583
464.00	101.717
465.00	99.087
466.00	98.385
467.00	96.237
468.00	96.234
469.00	100.484
470.00	97.112
471.00	96.856
472.00	96.352
473.00	98.249
474.00	97.377
475.00	96.741
476.00	95.406
477.00	99.271
478.00	97.446
479.00	97.460
480.00	96.317
481.00	97.575
482.00	96.633
483.00	98.165
484.00	96.645
485.00	98.022
486.00	96.534
487.00	95.959
488.00	96.659
489.00	97.560
490.00	96.986
491.00	97.203
492.00	97.887
493.00	98.629
494.00	97.688
495.00	98.391
496.00	98.073
497.00	97.294
498.00	97.964
499.00	97.259
500.00	97.363
501.00	97.593
502.00	98.254
503.00	96.599
504.00	97.115
505.00	96.970
506.00	97.369
507.00	97.445
508.00	98.610
509.00	97.568
510.00	97.272
511.00	97.338
512.00	97.339
513.00	97.748
514.00	97.225
515.00	97.691
516.00	97.135
517.00	98.009
518.00	97.263
519.00	97.865
520.00	98.207
521.00	97.483
522.00	97.786
523.00	97.366
524.00	97.642
525.00	97.618
526.00	98.469
527.00	98.301
528.00	98.233
529.00	97.989
530.00	98.642
531.00	98.071
532.00	97.820
533.00	97.756
534.00	97.729
535.00	97.261
536.00	98.298
537.00	97.932
538.00	97.894
539.00	97.809
540.00	98.146
541.00	97.582
542.00	97.950
543.00	98.173
544.00	97.797
545.00	98.121
546.00	98.408
547.00	97.648
548.00	97.697
549.00	97.488
550.00	98.258
551.00	97.676
552.00	97.473
553.00	98.209
554.00	97.415
555.00	97.727
556.00	98.187
557.00	98.001
558.00	98.007
559.00	97.445
560.00	97.768
561.00	98.639
562.00	98.016
563.00	97.384
564.00	97.234
565.00	98.015
566.00	97.560
567.00	97.360
568.00	97.559
569.00	98.069
570.00	98.078
571.00	98.129
572.00	97.913
573.00	97.942
574.00	98.015
575.00	98.365
576.00	97.834
577.00	98.126
578.00	98.167
579.00	97.788
580.00	97.939
581.00	97.946
582.00	97.761
583.00	98.002
584.00	97.529
585.00	98.103
586.00	97.194
587.00	97.766
588.00	97.811
589.00	97.779
590.00	98.388
591.00	97.851
592.00	97.611
593.00	97.787
594.00	97.196
595.00	97.550
596.00	97.201
597.00	97.108
598.00	96.818
599.00	97.425
600.00	97.473
601.00	96.645
602.00	96.976
603.00	97.044
604.00	96.753
605.00	96.923
606.00	96.488
607.00	96.521
608.00	96.868
609.00	95.884
610.00	96.040
611.00	96.041
612.00	95.249
613.00	95.908
614.00	96.447
615.00	95.536
616.00	95.073
617.00	96.023
618.00	95.732
619.00	95.420
620.00	95.325
621.00	95.594
622.00	95.245
623.00	95.602
624.00	95.808
625.00	94.974
626.00	95.118
627.00	95.160
628.00	94.147
629.00	94.345
630.00	94.700
631.00	94.509
632.00	94.544
633.00	94.748
634.00	93.954
635.00	94.023
636.00	93.686
637.00	93.683
638.00	93.513
639.00	93.765
640.00	94.122
641.00	93.551
642.00	93.346
643.00	93.688
644.00	93.988
645.00	93.294
646.00	92.927
647.00	93.094
648.00	92.863
649.00	93.091
650.00	93.091
651.00	93.089
652.00	92.803
653.00	92.859
654.00	93.116
655.00	92.571
656.00	92.789
657.00	93.453
658.00	92.264
659.00	93.230
660.00	92.622
661.00	92.556
662.00	92.647
663.00	92.858
664.00	92.590
665.00	92.509
666.00	92.498
667.00	92.498
668.00	92.309
669.00	93.116
670.00	93.137
671.00	92.259
672.00	92.131
673.00	92.433
674.00	92.435
675.00	93.059
676.00	92.931
677.00	92.694
678.00	92.995
679.00	93.531
680.00	93.220
681.00	92.866
682.00	92.987
683.00	92.903
684.00	92.497
685.00	92.420
686.00	92.491
687.00	92.991
688.00	92.974
689.00	92.563
690.00	92.684
691.00	93.114
692.00	93.022
693.00	93.508
694.00	93.598
695.00	93.162
696.00	92.661
697.00	92.976
698.00	92.535
699.00	93.428
700.00	92.659
701.00	93.021
702.00	93.125
703.00	93.472
704.00	93.516
705.00	93.342
706.00	93.092
707.00	92.555
708.00	93.586
709.00	93.467
710.00	94.178
711.00	92.402
712.00	93.473
713.00	93.277
714.00	93.820
715.00	94.013
716.00	93.902
717.00	93.738
718.00	93.837
719.00	94.448
720.00	93.821
721.00	93.956
722.00	93.867
723.00	93.708
724.00	93.665
725.00	94.503
726.00	93.932
727.00	94.665
728.00	93.846
729.00	93.869
730.00	94.635
731.00	94.311
732.00	94.656
733.00	94.250
734.00	94.433
735.00	94.568
736.00	94.123
737.00	94.134
738.00	94.695
739.00	94.749
740.00	93.904
741.00	93.629
742.00	94.242
743.00	94.850
744.00	94.355
745.00	94.246
746.00	95.260
747.00	94.359
748.00	94.453
749.00	95.205
750.00	94.347
751.00	94.542
752.00	94.034
753.00	94.386
754.00	94.444
755.00	94.299
756.00	95.135
757.00	95.791
758.00	94.269
759.00	93.417
760.00	95.042
761.00	93.607
762.00	95.055
763.00	94.316
764.00	94.622
765.00	94.546
766.00	94.928
767.00	95.220
768.00	94.827
769.00	94.309
770.00	95.678
771.00	94.270
772.00	94.611
773.00	94.397
774.00	94.074
775.00	95.197
776.00	95.257
777.00	96.088
778.00	95.131
779.00	94.684
780.00	94.477
781.00	94.991
782.00	95.127
783.00	95.317
784.00	94.886
785.00	95.695
786.00	95.233
787.00	95.495
788.00	95.189
789.00	94.795
790.00	95.426
791.00	94.491
792.00	94.991
793.00	96.585
794.00	95.074
795.00	95.283
796.00	94.696
797.00	94.839
798.00	95.818
799.00	95.704
800.00	95.157
801.00	95.519
802.00	94.771
803.00	95.787
804.00	95.413
805.00	95.435
806.00	94.965
807.00	94.847
808.00	95.331
809.00	95.124
810.00	94.877
811.00	94.241
812.00	94.558
813.00	95.030
814.00	94.965
815.00	95.068
816.00	94.644
817.00	95.614
818.00	95.226
819.00	96.841
820.00	94.999
821.00	96.169
822.00	94.740
823.00	95.667
824.00	94.853
825.00	95.120
826.00	94.716
827.00	94.036
828.00	95.892
829.00	95.363
830.00	95.764
831.00	96.325
832.00	95.396
833.00	95.368
834.00	95.065
835.00	95.270
836.00	96.159
837.00	96.055
838.00	96.658
839.00	94.144
840.00	94.967
841.00	96.839
842.00	96.100
843.00	97.330
844.00	96.999
845.00	97.342
846.00	93.323
847.00	96.071
848.00	94.709
849.00	95.189
850.00	95.292
851.00	95.843
852.00	96.041
853.00	95.807
854.00	95.709
855.00	95.501
856.00	96.149
857.00	97.576
858.00	94.695
859.00	96.704
860.00	95.077
861.00	97.699
862.00	96.586
863.00	97.343
864.00	96.128
865.00	95.684
866.00	96.953
867.00	94.904
868.00	96.564
869.00	97.377
870.00	95.915
871.00	95.799
872.00	95.952
873.00	95.558
874.00	97.091
875.00	96.581
876.00	93.665
877.00	95.586
878.00	96.246
879.00	95.185
880.00	97.771
881.00	96.531
882.00	95.416
883.00	96.160
884.00	96.325
885.00	97.800
886.00	96.684
887.00	96.012
888.00	93.787
889.00	94.324
890.00	97.535
891.00	94.587
892.00	97.756
893.00	95.812
894.00	96.982
895.00	97.138
896.00	96.701
897.00	99.179
898.00	98.577
899.00	95.140
900.00	95.928
901.00	97.247
902.00	97.762
903.00	98.472
904.00	98.489
905.00	93.371
906.00	97.985
907.00	96.250
908.00	98.417
909.00	95.582
910.00	95.552
911.00	96.826
912.00	98.311
913.00	97.123
914.00	95.128
915.00	98.054
916.00	98.444
917.00	98.380
918.00	97.461
919.00	99.206
920.00	97.126
921.00	95.363
922.00	97.651
923.00	100.766
924.00	97.906
925.00	101.265
926.00	95.658
927.00	97.213
928.00	91.337
929.00	96.937
930.00	96.476
931.00	97.864
932.00	98.215
933.00	105.610
934.00	104.518
935.00	98.145
936.00	95.989
937.00	98.611
938.00	92.484
939.00	95.066
940.00	106.120
941.00	96.891
942.00	99.944
943.00	98.683
944.00	96.502
945.00	97.340
946.00	98.565
947.00	105.259
948.00	98.864
949.00	92.720
950.00	106.494
951.00	107.173
952.00	98.915
953.00	99.984
954.00	90.936
955.00	93.048
956.00	96.063
957.00	104.730
958.00	102.323
959.00	87.819
960.00	100.590
961.00	92.394
962.00	94.952
963.00	96.436
964.00	93.262
965.00	101.207
966.00	85.422
967.00	105.787
968.00	99.146
969.00	93.335
970.00	92.890
971.00	96.026
972.00	107.918
973.00	102.735
974.00	97.948
975.00	105.280
976.00	89.537
977.00	110.380
978.00	109.124
979.00	107.477
980.00	107.709
981.00	95.475
982.00	103.879
983.00	96.905
984.00	77.491
985.00	98.989
986.00	103.449
987.00	94.762
988.00	86.060
989.00	112.345
990.00	95.320
991.00	96.595
992.00	91.012
993.00	96.844
994.00	77.946
995.00	122.123
996.00	102.258
997.00	97.086
998.00	92.259
999.00	95.696
1000.00	81.837
>>>>>End Processed Spectral Data<<<<<
