SpectraSuite Data File
++++++++++++++++++++++++++++++++++++
Date: Thu Nov 20 12:51:12 CET 2014
User: admin
Dark Spectrum Present: Yes
Reference Spectrum Present: Yes
Number of Sampled Component Spectra: 1
Spectrometers: USB2G49547
Integration Time (usec): 120000 (USB2G49547)
Spectra Averaged: 8 (USB2G49547)
Boxcar Smoothing: 0 (USB2G49547)
Correct for Electrical Dark: No (USB2G49547)
Strobe/Lamp Enabled: No (USB2G49547)
Correct for Detector Non-linearity: No (USB2G49547)
Correct for Stray Light: No (USB2G49547)
Number of Pixels in Processed Spectrum: 651
>>>>>Begin Processed Spectral Data<<<<<
350.00	87.354
351.00	84.981
352.00	112.982
353.00	109.698
354.00	111.191
355.00	125.516
356.00	148.880
357.00	115.373
358.00	179.768
359.00	120.730
360.00	128.378
361.00	69.562
362.00	101.660
363.00	83.350
364.00	78.552
365.00	110.015
366.00	107.883
367.00	100.479
368.00	140.978
369.00	99.722
370.00	88.177
371.00	135.722
372.00	115.072
373.00	78.237
374.00	103.176
375.00	123.378
376.00	532.226
377.00	63.945
378.00	83.938
379.00	87.017
380.00	116.044
381.00	168.159
382.00	125.536
383.00	110.800
384.00	144.504
385.00	74.313
386.00	154.692
387.00	150.490
388.00	76.379
389.00	119.719
390.00	129.733
391.00	147.145
392.00	120.152
393.00	121.477
394.00	91.848
395.00	89.314
396.00	90.368
397.00	93.606
398.00	101.081
399.00	76.193
400.00	84.077
401.00	109.254
402.00	132.095
403.00	133.893
404.00	234.032
405.00	80.531
406.00	92.407
407.00	120.224
408.00	110.613
409.00	107.928
410.00	135.516
411.00	106.948
412.00	87.213
413.00	88.097
414.00	81.825
415.00	90.259
416.00	100.951
417.00	106.113
418.00	109.169
419.00	88.827
420.00	110.543
421.00	95.902
422.00	87.843
423.00	104.451
424.00	98.738
425.00	96.472
426.00	99.551
427.00	106.713
428.00	93.008
429.00	97.179
430.00	107.253
431.00	100.344
432.00	91.545
433.00	92.880
434.00	100.390
435.00	100.033
436.00	97.442
437.00	93.842
438.00	97.307
439.00	100.107
440.00	96.666
441.00	96.036
442.00	101.419
443.00	99.645
444.00	97.687
445.00	100.366
446.00	98.272
447.00	96.542
448.00	98.003
449.00	101.111
450.00	98.331
451.00	99.172
452.00	97.421
453.00	98.606
454.00	98.656
455.00	95.200
456.00	98.969
457.00	96.347
458.00	100.208
459.00	99.807
460.00	98.804
461.00	98.716
462.00	101.055
463.00	100.274
464.00	100.745
465.00	99.851
466.00	98.237
467.00	98.288
468.00	97.921
469.00	97.571
470.00	100.902
471.00	100.555
472.00	96.598
473.00	96.345
474.00	98.925
475.00	98.202
476.00	101.637
477.00	99.292
478.00	100.442
479.00	97.585
480.00	99.410
481.00	98.260
482.00	99.412
483.00	99.986
484.00	98.111
485.00	98.199
486.00	98.808
487.00	97.901
488.00	99.420
489.00	98.943
490.00	98.871
491.00	98.852
492.00	98.737
493.00	98.531
494.00	98.717
495.00	99.793
496.00	99.963
497.00	98.775
498.00	98.881
499.00	98.361
500.00	98.662
501.00	98.984
502.00	99.045
503.00	98.818
504.00	98.417
505.00	98.738
506.00	98.821
507.00	98.777
508.00	98.925
509.00	98.493
510.00	99.122
511.00	99.458
512.00	99.240
513.00	98.252
514.00	98.443
515.00	99.115
516.00	98.248
517.00	98.521
518.00	98.527
519.00	98.510
520.00	98.143
521.00	98.486
522.00	98.295
523.00	98.899
524.00	98.198
525.00	98.334
526.00	98.641
527.00	98.104
528.00	98.230
529.00	98.263
530.00	98.381
531.00	97.901
532.00	98.020
533.00	98.658
534.00	98.748
535.00	97.934
536.00	98.346
537.00	97.913
538.00	98.074
539.00	97.951
540.00	99.059
541.00	98.137
542.00	98.851
543.00	98.232
544.00	98.500
545.00	98.639
546.00	98.080
547.00	97.758
548.00	98.656
549.00	98.001
550.00	98.052
551.00	97.926
552.00	97.923
553.00	98.225
554.00	98.403
555.00	98.039
556.00	97.864
557.00	97.794
558.00	98.298
559.00	98.132
560.00	98.101
561.00	98.096
562.00	98.427
563.00	98.094
564.00	97.547
565.00	98.187
566.00	98.193
567.00	97.856
568.00	98.038
569.00	98.011
570.00	98.095
571.00	97.580
572.00	98.464
573.00	98.095
574.00	98.181
575.00	98.173
576.00	97.950
577.00	97.712
578.00	97.993
579.00	97.520
580.00	98.634
581.00	98.466
582.00	97.197
583.00	98.019
584.00	98.110
585.00	97.967
586.00	97.855
587.00	97.762
588.00	97.859
589.00	98.267
590.00	97.596
591.00	98.111
592.00	97.849
593.00	97.835
594.00	97.871
595.00	97.843
596.00	97.836
597.00	97.500
598.00	97.649
599.00	97.870
600.00	97.515
601.00	97.790
602.00	97.579
603.00	97.167
604.00	97.421
605.00	97.464
606.00	97.060
607.00	97.693
608.00	96.857
609.00	96.793
610.00	97.148
611.00	97.449
612.00	97.813
613.00	96.750
614.00	97.048
615.00	96.738
616.00	96.517
617.00	96.520
618.00	96.853
619.00	96.600
620.00	96.121
621.00	96.546
622.00	95.994
623.00	96.694
624.00	95.838
625.00	95.994
626.00	95.898
627.00	95.797
628.00	96.265
629.00	95.691
630.00	96.113
631.00	95.296
632.00	95.646
633.00	95.181
634.00	95.166
635.00	95.943
636.00	95.134
637.00	95.004
638.00	95.197
639.00	95.338
640.00	95.356
641.00	94.705
642.00	94.571
643.00	94.913
644.00	94.815
645.00	94.616
646.00	94.707
647.00	93.946
648.00	93.927
649.00	94.457
650.00	93.657
651.00	93.800
652.00	93.796
653.00	93.350
654.00	94.115
655.00	93.605
656.00	93.203
657.00	93.433
658.00	92.958
659.00	92.917
660.00	93.316
661.00	93.209
662.00	92.868
663.00	92.749
664.00	92.450
665.00	92.496
666.00	92.591
667.00	92.654
668.00	92.368
669.00	92.843
670.00	92.647
671.00	92.168
672.00	91.768
673.00	92.462
674.00	91.818
675.00	91.926
676.00	92.105
677.00	91.778
678.00	92.109
679.00	91.593
680.00	92.047
681.00	91.361
682.00	91.517
683.00	91.673
684.00	91.626
685.00	91.709
686.00	90.636
687.00	91.474
688.00	90.923
689.00	91.195
690.00	91.877
691.00	91.398
692.00	91.698
693.00	90.973
694.00	91.493
695.00	91.192
696.00	91.865
697.00	91.298
698.00	91.440
699.00	91.007
700.00	90.953
701.00	91.466
702.00	91.350
703.00	91.498
704.00	91.845
705.00	91.439
706.00	91.214
707.00	91.483
708.00	91.190
709.00	91.529
710.00	91.796
711.00	91.274
712.00	91.139
713.00	91.873
714.00	91.427
715.00	92.110
716.00	91.210
717.00	91.772
718.00	90.924
719.00	91.268
720.00	91.807
721.00	91.802
722.00	91.672
723.00	92.356
724.00	91.869
725.00	92.026
726.00	91.995
727.00	92.547
728.00	92.103
729.00	92.441
730.00	91.740
731.00	92.400
732.00	91.675
733.00	91.403
734.00	92.570
735.00	91.631
736.00	92.006
737.00	91.727
738.00	92.652
739.00	91.860
740.00	92.652
741.00	92.667
742.00	92.141
743.00	91.650
744.00	92.462
745.00	92.077
746.00	92.686
747.00	92.071
748.00	92.500
749.00	93.127
750.00	92.384
751.00	92.666
752.00	92.336
753.00	93.220
754.00	92.643
755.00	92.614
756.00	93.146
757.00	93.180
758.00	93.748
759.00	92.682
760.00	92.914
761.00	93.457
762.00	93.590
763.00	93.079
764.00	93.429
765.00	93.064
766.00	93.158
767.00	93.365
768.00	93.197
769.00	93.349
770.00	92.766
771.00	93.563
772.00	94.505
773.00	93.065
774.00	93.446
775.00	92.958
776.00	93.260
777.00	93.407
778.00	93.807
779.00	94.344
780.00	94.789
781.00	93.955
782.00	93.747
783.00	92.825
784.00	93.372
785.00	93.254
786.00	93.752
787.00	94.544
788.00	95.005
789.00	94.289
790.00	94.421
791.00	94.150
792.00	94.162
793.00	94.776
794.00	94.223
795.00	94.148
796.00	94.402
797.00	94.929
798.00	94.561
799.00	95.041
800.00	93.418
801.00	93.333
802.00	93.667
803.00	94.313
804.00	94.956
805.00	94.203
806.00	95.231
807.00	95.480
808.00	94.166
809.00	94.911
810.00	94.611
811.00	94.124
812.00	95.903
813.00	95.305
814.00	94.808
815.00	93.895
816.00	94.545
817.00	94.429
818.00	93.297
819.00	95.336
820.00	95.531
821.00	95.340
822.00	93.658
823.00	94.590
824.00	95.775
825.00	95.353
826.00	93.695
827.00	94.831
828.00	95.185
829.00	94.613
830.00	94.557
831.00	95.189
832.00	95.130
833.00	96.304
834.00	93.811
835.00	95.707
836.00	96.487
837.00	95.103
838.00	94.688
839.00	94.208
840.00	94.841
841.00	94.858
842.00	95.121
843.00	94.302
844.00	95.533
845.00	95.404
846.00	95.926
847.00	93.566
848.00	93.924
849.00	96.013
850.00	94.674
851.00	94.898
852.00	94.425
853.00	93.778
854.00	94.903
855.00	96.137
856.00	95.259
857.00	96.056
858.00	95.779
859.00	93.166
860.00	95.511
861.00	94.043
862.00	95.673
863.00	95.757
864.00	94.922
865.00	94.425
866.00	94.415
867.00	94.296
868.00	97.945
869.00	95.380
870.00	93.824
871.00	94.227
872.00	95.072
873.00	96.187
874.00	94.200
875.00	94.142
876.00	97.746
877.00	98.682
878.00	95.684
879.00	95.497
880.00	95.157
881.00	94.539
882.00	94.710
883.00	95.923
884.00	97.738
885.00	93.456
886.00	94.671
887.00	96.535
888.00	94.781
889.00	94.452
890.00	95.558
891.00	92.411
892.00	95.191
893.00	98.700
894.00	96.714
895.00	95.178
896.00	93.662
897.00	96.774
898.00	96.936
899.00	91.754
900.00	93.927
901.00	98.497
902.00	96.001
903.00	97.939
904.00	92.359
905.00	96.171
906.00	95.854
907.00	93.484
908.00	96.162
909.00	97.915
910.00	94.053
911.00	96.226
912.00	95.892
913.00	95.553
914.00	98.663
915.00	93.211
916.00	97.685
917.00	98.993
918.00	96.290
919.00	93.659
920.00	96.966
921.00	95.442
922.00	95.536
923.00	95.322
924.00	97.045
925.00	97.806
926.00	94.861
927.00	96.043
928.00	99.298
929.00	97.031
930.00	92.591
931.00	93.818
932.00	95.896
933.00	92.718
934.00	98.935
935.00	100.672
936.00	95.994
937.00	93.258
938.00	94.506
939.00	96.464
940.00	96.718
941.00	97.649
942.00	95.507
943.00	97.276
944.00	93.920
945.00	98.444
946.00	105.730
947.00	92.547
948.00	100.908
949.00	102.330
950.00	98.284
951.00	99.684
952.00	97.426
953.00	94.068
954.00	95.742
955.00	89.584
956.00	93.120
957.00	102.013
958.00	95.809
959.00	96.205
960.00	93.341
961.00	93.434
962.00	88.644
963.00	93.977
964.00	88.959
965.00	101.801
966.00	111.213
967.00	93.749
968.00	108.979
969.00	98.824
970.00	94.355
971.00	99.794
972.00	100.442
973.00	94.724
974.00	95.958
975.00	107.024
976.00	94.839
977.00	107.962
978.00	88.317
979.00	102.191
980.00	106.017
981.00	116.622
982.00	109.732
983.00	95.093
984.00	88.179
985.00	110.556
986.00	97.333
987.00	81.845
988.00	101.558
989.00	78.935
990.00	83.122
991.00	74.481
992.00	102.052
993.00	95.547
994.00	93.966
995.00	99.434
996.00	94.685
997.00	104.964
998.00	125.172
999.00	92.431
1000.00	102.195
>>>>>End Processed Spectral Data<<<<<
