SpectraSuite Data File
++++++++++++++++++++++++++++++++++++
Date: Thu Nov 20 12:50:50 CET 2014
User: admin
Dark Spectrum Present: Yes
Reference Spectrum Present: Yes
Number of Sampled Component Spectra: 1
Spectrometers: USB2G49547
Integration Time (usec): 120000 (USB2G49547)
Spectra Averaged: 8 (USB2G49547)
Boxcar Smoothing: 0 (USB2G49547)
Correct for Electrical Dark: No (USB2G49547)
Strobe/Lamp Enabled: No (USB2G49547)
Correct for Detector Non-linearity: No (USB2G49547)
Correct for Stray Light: No (USB2G49547)
Number of Pixels in Processed Spectrum: 651
>>>>>Begin Processed Spectral Data<<<<<
350.00	97.334
351.00	87.573
352.00	61.694
353.00	100.971
354.00	50.021
355.00	130.347
356.00	124.088
357.00	109.810
358.00	164.476
359.00	89.260
360.00	124.137
361.00	128.724
362.00	55.988
363.00	80.744
364.00	51.902
365.00	115.392
366.00	222.285
367.00	110.584
368.00	89.211
369.00	122.270
370.00	93.005
371.00	29.431
372.00	97.183
373.00	51.751
374.00	89.777
375.00	87.755
376.00	98.568
377.00	107.173
378.00	153.685
379.00	85.406
380.00	93.423
381.00	126.850
382.00	147.819
383.00	123.621
384.00	66.146
385.00	107.400
386.00	169.279
387.00	134.002
388.00	112.859
389.00	88.652
390.00	115.016
391.00	99.053
392.00	107.791
393.00	128.334
394.00	94.677
395.00	75.325
396.00	67.441
397.00	101.962
398.00	97.348
399.00	95.622
400.00	70.163
401.00	74.011
402.00	98.591
403.00	116.028
404.00	84.365
405.00	88.369
406.00	78.753
407.00	112.953
408.00	85.450
409.00	108.223
410.00	90.656
411.00	90.833
412.00	104.481
413.00	77.928
414.00	100.175
415.00	72.551
416.00	78.545
417.00	98.792
418.00	80.341
419.00	94.430
420.00	85.222
421.00	105.420
422.00	101.415
423.00	87.680
424.00	98.444
425.00	98.661
426.00	85.210
427.00	88.841
428.00	103.287
429.00	98.169
430.00	97.332
431.00	104.380
432.00	95.738
433.00	102.051
434.00	96.792
435.00	93.449
436.00	96.908
437.00	99.229
438.00	104.110
439.00	97.464
440.00	91.148
441.00	101.026
442.00	100.908
443.00	103.839
444.00	102.892
445.00	99.021
446.00	96.092
447.00	98.007
448.00	97.387
449.00	99.969
450.00	100.303
451.00	100.963
452.00	99.122
453.00	95.179
454.00	100.010
455.00	98.472
456.00	96.778
457.00	99.308
458.00	102.175
459.00	94.732
460.00	96.347
461.00	98.912
462.00	97.876
463.00	98.381
464.00	99.375
465.00	98.338
466.00	99.334
467.00	97.001
468.00	98.405
469.00	96.228
470.00	96.999
471.00	96.041
472.00	98.618
473.00	97.816
474.00	94.697
475.00	98.183
476.00	98.404
477.00	97.440
478.00	97.108
479.00	98.160
480.00	98.031
481.00	97.790
482.00	98.755
483.00	98.121
484.00	98.471
485.00	98.458
486.00	98.319
487.00	96.297
488.00	98.641
489.00	96.839
490.00	97.030
491.00	97.288
492.00	97.723
493.00	97.689
494.00	98.434
495.00	97.165
496.00	97.950
497.00	97.476
498.00	97.773
499.00	98.228
500.00	97.653
501.00	97.342
502.00	97.592
503.00	98.060
504.00	97.721
505.00	97.327
506.00	97.250
507.00	98.250
508.00	97.491
509.00	97.877
510.00	97.372
511.00	97.790
512.00	97.570
513.00	96.999
514.00	97.531
515.00	97.260
516.00	96.901
517.00	96.896
518.00	97.131
519.00	97.228
520.00	97.029
521.00	97.655
522.00	97.377
523.00	97.713
524.00	97.801
525.00	98.224
526.00	97.372
527.00	96.469
528.00	97.337
529.00	96.779
530.00	96.573
531.00	96.652
532.00	96.928
533.00	96.792
534.00	97.090
535.00	96.866
536.00	96.754
537.00	96.906
538.00	97.253
539.00	96.723
540.00	97.081
541.00	96.746
542.00	97.637
543.00	97.120
544.00	96.718
545.00	97.526
546.00	96.904
547.00	96.736
548.00	96.511
549.00	97.179
550.00	96.698
551.00	96.663
552.00	96.011
553.00	96.687
554.00	96.638
555.00	96.328
556.00	96.473
557.00	96.221
558.00	96.340
559.00	96.424
560.00	96.592
561.00	96.846
562.00	96.402
563.00	96.249
564.00	95.765
565.00	96.065
566.00	96.807
567.00	96.883
568.00	96.683
569.00	96.119
570.00	95.791
571.00	95.790
572.00	96.428
573.00	96.120
574.00	96.801
575.00	96.638
576.00	96.282
577.00	96.597
578.00	96.552
579.00	96.052
580.00	96.363
581.00	95.819
582.00	95.794
583.00	96.422
584.00	96.144
585.00	96.068
586.00	95.809
587.00	96.863
588.00	96.149
589.00	96.225
590.00	96.191
591.00	95.797
592.00	96.427
593.00	96.036
594.00	96.235
595.00	95.961
596.00	95.742
597.00	95.949
598.00	95.989
599.00	95.641
600.00	95.777
601.00	95.591
602.00	95.950
603.00	95.976
604.00	95.759
605.00	96.018
606.00	95.985
607.00	95.891
608.00	95.630
609.00	95.512
610.00	95.889
611.00	94.769
612.00	95.123
613.00	95.223
614.00	94.977
615.00	95.162
616.00	95.157
617.00	95.332
618.00	94.583
619.00	95.379
620.00	94.713
621.00	94.797
622.00	94.743
623.00	94.451
624.00	94.860
625.00	94.406
626.00	94.662
627.00	94.787
628.00	94.586
629.00	94.059
630.00	93.978
631.00	94.442
632.00	93.842
633.00	94.123
634.00	93.827
635.00	93.784
636.00	93.755
637.00	93.766
638.00	93.428
639.00	94.018
640.00	93.713
641.00	93.973
642.00	93.546
643.00	93.257
644.00	93.619
645.00	93.266
646.00	93.510
647.00	93.295
648.00	93.116
649.00	93.199
650.00	93.030
651.00	93.255
652.00	93.069
653.00	92.823
654.00	93.138
655.00	92.429
656.00	92.192
657.00	92.639
658.00	92.225
659.00	92.367
660.00	92.729
661.00	92.213
662.00	92.282
663.00	92.426
664.00	91.976
665.00	92.014
666.00	92.429
667.00	91.990
668.00	92.528
669.00	92.189
670.00	92.290
671.00	91.728
672.00	92.124
673.00	91.533
674.00	91.802
675.00	92.520
676.00	92.426
677.00	92.356
678.00	91.943
679.00	91.196
680.00	91.794
681.00	91.856
682.00	91.868
683.00	91.727
684.00	91.990
685.00	91.597
686.00	92.602
687.00	91.420
688.00	91.196
689.00	92.152
690.00	91.109
691.00	92.055
692.00	91.107
693.00	92.127
694.00	91.778
695.00	91.847
696.00	92.466
697.00	92.099
698.00	91.925
699.00	91.920
700.00	91.655
701.00	91.850
702.00	91.923
703.00	91.741
704.00	91.903
705.00	91.795
706.00	91.921
707.00	91.915
708.00	91.856
709.00	92.097
710.00	92.335
711.00	92.360
712.00	92.163
713.00	92.682
714.00	92.139
715.00	92.397
716.00	91.822
717.00	91.774
718.00	92.264
719.00	92.424
720.00	91.650
721.00	92.147
722.00	93.022
723.00	92.871
724.00	93.017
725.00	93.002
726.00	92.342
727.00	92.320
728.00	92.588
729.00	92.328
730.00	92.768
731.00	92.755
732.00	92.490
733.00	92.739
734.00	93.093
735.00	92.604
736.00	93.159
737.00	93.278
738.00	92.728
739.00	93.717
740.00	93.152
741.00	93.063
742.00	93.387
743.00	92.976
744.00	92.225
745.00	93.312
746.00	93.705
747.00	92.872
748.00	92.969
749.00	93.122
750.00	92.443
751.00	92.965
752.00	93.071
753.00	93.023
754.00	93.404
755.00	93.368
756.00	93.380
757.00	92.706
758.00	92.335
759.00	92.629
760.00	94.060
761.00	93.410
762.00	92.887
763.00	92.606
764.00	92.665
765.00	93.084
766.00	93.125
767.00	94.240
768.00	94.149
769.00	92.934
770.00	93.397
771.00	93.257
772.00	93.602
773.00	93.286
774.00	93.636
775.00	93.488
776.00	93.016
777.00	93.856
778.00	94.544
779.00	94.804
780.00	93.464
781.00	93.924
782.00	93.797
783.00	93.643
784.00	93.897
785.00	93.272
786.00	94.655
787.00	93.290
788.00	93.706
789.00	94.082
790.00	93.580
791.00	93.477
792.00	94.400
793.00	93.832
794.00	93.224
795.00	93.621
796.00	93.648
797.00	94.130
798.00	94.378
799.00	93.583
800.00	93.401
801.00	94.064
802.00	93.872
803.00	94.735
804.00	94.774
805.00	94.526
806.00	94.359
807.00	93.370
808.00	93.848
809.00	93.999
810.00	94.490
811.00	94.640
812.00	94.062
813.00	92.626
814.00	93.839
815.00	94.222
816.00	93.902
817.00	93.379
818.00	94.541
819.00	93.209
820.00	94.257
821.00	94.044
822.00	94.670
823.00	94.299
824.00	94.748
825.00	94.241
826.00	93.607
827.00	94.217
828.00	94.396
829.00	93.941
830.00	93.931
831.00	93.888
832.00	93.297
833.00	93.819
834.00	94.205
835.00	94.718
836.00	94.847
837.00	94.659
838.00	95.254
839.00	94.592
840.00	95.339
841.00	94.186
842.00	95.494
843.00	93.241
844.00	94.560
845.00	95.258
846.00	94.403
847.00	95.328
848.00	93.980
849.00	94.026
850.00	94.951
851.00	93.105
852.00	96.370
853.00	95.150
854.00	93.741
855.00	93.787
856.00	92.155
857.00	94.842
858.00	93.742
859.00	94.328
860.00	96.070
861.00	94.848
862.00	94.334
863.00	95.201
864.00	94.385
865.00	96.998
866.00	92.762
867.00	94.925
868.00	97.239
869.00	92.812
870.00	96.684
871.00	92.312
872.00	96.230
873.00	95.357
874.00	96.176
875.00	94.165
876.00	97.292
877.00	94.888
878.00	95.760
879.00	95.163
880.00	94.899
881.00	93.127
882.00	95.539
883.00	95.146
884.00	95.681
885.00	95.018
886.00	96.836
887.00	95.801
888.00	99.273
889.00	96.671
890.00	93.139
891.00	93.814
892.00	95.377
893.00	95.355
894.00	96.111
895.00	95.067
896.00	95.117
897.00	97.034
898.00	94.614
899.00	98.572
900.00	95.565
901.00	96.407
902.00	95.463
903.00	98.515
904.00	95.609
905.00	94.014
906.00	93.903
907.00	97.050
908.00	97.133
909.00	98.007
910.00	97.193
911.00	97.243
912.00	97.254
913.00	93.376
914.00	96.926
915.00	95.068
916.00	94.598
917.00	95.501
918.00	95.081
919.00	97.453
920.00	94.210
921.00	97.690
922.00	99.452
923.00	95.584
924.00	95.840
925.00	96.199
926.00	95.852
927.00	100.737
928.00	99.614
929.00	101.868
930.00	94.034
931.00	99.702
932.00	98.557
933.00	97.595
934.00	92.975
935.00	92.347
936.00	103.215
937.00	93.367
938.00	98.176
939.00	97.136
940.00	100.181
941.00	98.551
942.00	91.194
943.00	95.265
944.00	98.492
945.00	97.073
946.00	92.710
947.00	98.439
948.00	101.439
949.00	94.897
950.00	99.407
951.00	99.043
952.00	101.501
953.00	94.251
954.00	105.809
955.00	97.815
956.00	94.552
957.00	93.793
958.00	94.028
959.00	98.308
960.00	101.162
961.00	101.896
962.00	99.597
963.00	94.454
964.00	102.961
965.00	101.097
966.00	94.791
967.00	90.850
968.00	97.560
969.00	95.858
970.00	105.392
971.00	94.092
972.00	102.404
973.00	89.447
974.00	109.968
975.00	94.222
976.00	105.465
977.00	105.000
978.00	103.947
979.00	81.913
980.00	90.049
981.00	96.575
982.00	94.338
983.00	103.941
984.00	103.026
985.00	101.509
986.00	99.997
987.00	102.429
988.00	89.327
989.00	83.324
990.00	82.675
991.00	97.709
992.00	96.622
993.00	93.421
994.00	122.709
995.00	95.497
996.00	115.176
997.00	131.053
998.00	111.974
999.00	106.556
1000.00	100.562
>>>>>End Processed Spectral Data<<<<<
